signal
0.21684773163837515
0.26964660388990047
0.22673935935786274
0.27028785201636635
0.21691207643744187
0.26082321771022604
0.2514367176635915
0.3829239241434283
0.2383410027088366
0.3394675553483771
0.26876570296204827
0.4065139349764013
0.4099583988990732
0.4523963700305253
0.3173082893886921
0.3520937834452601
0.41287184649734254
0.4648843923623289
0.4739257150491662
0.5419092738789757
0.4663865924802974
0.5818234823271461
0.4986892194079567
0.5920163434718863
0.48315269830943275
0.5730448606078187
0.5456617953341147
0.6181238423012667
0.6023116785704835
0.632826085055563
0.5566927434790662
0.5308077329849035
0.6220064013811666
0.6886775154021143
0.5604291538955444
0.6493065546522425
0.6861474983364307
0.6867843539218715
0.807027952549904
0.6655823159991181
0.7591438411346254
0.6529420234173484
0.7345807757793839
0.697183727342089
0.7908438756504269
0.7847689250450778
0.7047895566926373
0.9106117610148109
0.7646210663488677
0.8460944623289642
0.7297325944061245
0.91254904841235
0.8116765660505803
0.7108428235734628
0.9313816169172074
0.7746523944943309
0.8067845985048199
0.898865547274488
0.8504955760254622
0.8102333574884876
0.8546252615050048
0.8398701874553308
0.96064066813743
0.8142005176917612
0.9805790805513189
0.8926012058895492
1.0770287926449391
0.9080768968122838
0.8449067921728035
0.9499988642079203
0.8431646697934615
0.9896121249028488
1.0624049017234536
0.9717417449451057
0.9876587527753437
0.938297488517774
1.031847800778736
0.9553321504280635
0.9557641207756815
0.9564287656472554
0.9900386240931573
0.9384215846706947
1.0106695203751768
0.9514325270727847
0.9078089014247048
1.0875636053056863
1.041356753608562
0.9884907987460502
0.9870566345997599
1.0228984103492818
1.049867146238624
1.0826113537483388
1.066013529813664
1.1099439514423526
1.0250265365860758
1.0983003786477719
1.045816101077245
1.0010453908585084
1.158705884658494
1.0233903911895765
1.089566444016731
1.0408240521604322
1.0579425935364852
1.0048297351145088
1.038091325154056
1.0005654666953612
1.17549354446822
1.130490839358977
1.0360579496267122
1.0561336545912237
1.155161883361631
1.0399706828525233
1.0148213551977248
1.2021492722968965
1.1117656637057065
0.9474622712720192
1.1488014689080401
1.091344668636955
1.0358286175784404
1.1049199658764732
1.1339505037140434
1.1386283904416763
1.0881258040822783
1.0574618446633652
1.1394836887805002
1.0382817663667534
1.0772513005626154
1.172585457782139
1.0997260033373994
1.0604860354471761
1.0405309849302986
1.0218554970036426
1.1168301519287562
1.127334790197072
1.0965890726815195
1.107103646237922
1.1005411436810142
1.128822966755884
1.1014984334861408
1.1166563479091611
1.1510523087479874
1.0791977692144652
1.0412584009976036
1.0426031204233357
1.1022594936780112
1.1300652095170836
1.0859385312418757
1.117410626809337
1.0383013482003696
1.1306825551869595
1.1625851097596727
1.0830953183104568
1.1279257913976595
1.0928478990956474
1.0751276362270499
1.1462764876185496
0.9963056594100705
1.0252686006724592
1.1477376007274536
1.1070006396975962
1.0853086104985332
1.129979277369919
1.0877835810940073
1.1278917472637513
0.9980942390072145
1.0339099735253556
1.149132976708999
1.1081140144869341
1.106390210942913
1.0883025327505234
1.0514786969333256
1.0700631720461133
1.0968941273947095
1.0433523353967489
0.9803426343596471
1.0434603927505206
1.1512264523871547
1.030643040550034
0.9954264375739802
1.0029059144493548
1.0814447567360452
0.965354939545147
0.9187613313465226
1.082816252044712
1.1731518769222826
1.042582361358821
1.0325890773666793
0.9582905483056725
1.0523231520225869
1.0156827944997193
1.089479638126687
1.0419537530530758
1.0364480205124604
1.104802644539562
0.9350421854490832
1.0690740845901292
0.9785043373752875
1.016644512850108
1.0991062501395343
0.9258249030054575
0.9089144886618956
0.9563665786314041
0.9043629778572924
1.0228111402333555
0.9911999263658052
1.0031538630120806
1.0421543829026938
1.0262169674891455
1.006382869885851
0.9406996703976553
1.0047296898022386
0.9631952847507554
1.0087557821422262
0.8876339877923358
0.9465729801698083
0.8893548853632337
0.9343270542986699
0.9164081483986948
0.8361002464262521
0.8894418683768929
0.9427459397966746
0.9234190015883381
0.7997290710131619
0.9228045846211103
0.9834888934926802
0.9115043399658098
0.9382263118630535
0.916807457039497
0.9255570459590866
0.8429042686216772
0.9021512706122735
0.8779719108564263
0.8944891152122303
0.7721300377028031
0.7645073818621578
0.7732079019167966
0.9236683897970231
0.8799990866081385
0.8632339877170313
0.7697677812625696
0.8492868452621666
0.8146901067541831
0.8133195881716948
0.7935801320379501
0.8061027690066102
0.8039057571405409
0.7682943120405661
0.767371794144215
0.7248485068586645
0.7373559567926892
0.8055787630879042
0.727579991181574
0.6892588662696555
0.7361349055318622
0.6676077174640143
0.7897519392637524
0.7126566509125876
0.7317897538039082
0.6269951829326628
0.7202298096261844
0.7121824110767876
0.6464813813099868
0.6375842598008508
0.6327019419709417
0.6872913432687412
0.6104767721451367
0.5916325806055032
0.6521350734227863
0.6659926862381569
0.5157556602156125
0.5904201396573551
0.5207377014254037
0.49066471594341593
0.5601507761682308
0.5923868973150981
0.5939392555588386
0.5421578810241127
0.5784509882703854
0.5483665023252556
0.5583921431942288
0.5099606256911666
0.47134766243813225
0.46190126707952334
0.4360356970732782
0.4782638869942156
0.5040852495310679
0.44419678162564163
0.43268427516874336
0.4423054724400976
0.4320492187049236
0.4337995272720673
0.3882138771463277
0.35860818014681933
0.3906805476257985
0.28461844461276053
0.41698843618223264
0.41307104504193976
0.38783487647451254
0.4291330382997989
0.3674953092243447
0.4282308812553489
0.40597233303224184
0.24061390817352138
0.3338223074686449
0.33703499028720196
0.3828787529652392
0.2659218982483429
0.2819775928179848
0.3900068519030037
0.389062603653898
0.2608860959883638
0.3206573213417916
0.23234210692584845
0.21747074597418573
0.21465034400733374
0.2597471212971223
0.20561072421091903
0.18352560189391412
0.17008864340683424
0.30782988602769545
0.11165865507858976
0.15182996000386081
0.12111354023444668
0.1849219764770799
0.08049386119293839
0.05805506395929588
0.1435092876552362
0.14228053871484725
0.1029212707450404
-0.011760151142219538
0.1295301546188506
0.010382765129729049
0.07320454979033746
0.07738634789079339
0.029888615594926393
0.07014812915026207
0.16588745047714648
0.028176742035642886
0.05966487562945219
0.02966026935464453
0.015622006522419896
0.04608487599844708
-0.06035033001046552
-0.13567318365517914
0.12502293492984512
-0.013329959841160489
-0.05633998522243656
-0.055355196307704954
-0.013735503508641687
-0.10765966282852697
-0.10788191951490513
-0.10084374829543646
-0.05185995731604686
-0.10527281405970289
-0.018035633402138804
0.006436559550367246
-0.07356120292438617
-0.1135978657867182
-0.07350663822452128
-0.04240495929587566
-0.15061382467029644
-0.20051622682909095
-0.1417398241853539
-0.0909621709951061
-0.0869157988730075
-0.14817401542320768
-0.1058236934134304
-0.07892584283465962
-0.07146645516696269
-0.09823084418729885
-0.1523412043703036
-0.1617952229772671
-0.1993080112644894
-0.20603299162520491
-0.0601091260076458
-0.03917321908862417
-0.1774603610243893
-0.11936083863008687
-0.10739169304673171
-0.2368648025323022
-0.14196541960078873
-0.19968815190421904
-0.21188996068221297
-0.2620384700792239
-0.17093498826162684
-0.262690004764796
-0.22001343279222696
-0.31707150261031847
-0.19415480983649888
-0.095775741125131
-0.3166532882684881
-0.2016203056399149
-0.10081750982471988
-0.27809616549356736
-0.10955253775335416
-0.23234862374988802
-0.14101693648873181
-0.3169193879945076
-0.14608845465754183
-0.22473209662410434
-0.16347091192238214
-0.274978235731816
-0.22229444717823932
-0.1845522069249635
-0.2339380773576249
-0.15176474320957703
-0.29911594726066726
-0.17795363014868626
-0.13312943023727064
-0.1656820206749189
-0.1892767970583231
-0.20171542377456536
-0.2524907428594182
-0.13968168127760994
-0.20881721084154747
-0.19342794547707484
-0.14935026979307142
-0.17485825487888046
-0.06619508383158368
-0.1660157288214954
-0.18542836530096363
-0.18420063758116595
-0.23785762294630736
-0.20462497855239983
-0.20711968500956762
-0.18694669346466763
-0.16107743951083628
-0.2480465240859182
-0.17291174787074048
-0.016289050770956576
-0.2533243179808066
-0.18663452098723682
-0.17912042460412408
-0.17536041828310936
-0.14494620430152344
-0.14078917073170877
-0.13555230649323374
-0.1190313862973996
-0.09606266353775694
-0.17861055897695616
-0.030861437741979497
-0.1345709099027247
-0.13762829663833182
-0.17442062595467267
-0.09331438168158075
-0.12262696395283415
-0.1744733981678704
-0.1493908703625318
-0.20457518510264322
-0.17088864566846745
-0.0370812799725458
-0.17171145770582796
-0.12441196300624613
-0.07446599274945075
-0.05078989975541257
-0.09094299566748996
-0.11398550104819964
0.003067007570376451
-0.10911291709346325
-0.15102107783826207
-0.14876208453956397
-0.05797670541424483
-0.024256825110728006
-0.15085507986365865
-0.1722930892203342
-0.026974110133867482
0.02174343839040084
-0.03496738262704132
-0.1351950196667714
0.0001466126889261704
-0.05372466061913745
-0.035978031587153396
-0.13236736791642262
-0.05152237388530767
-0.05101511837493196
-0.04169706351060924
-0.05517744205413187
-0.029524985191017226
-0.045755324266085085
-0.034742651406388166
-0.05568328854115472
-0.08582628792101929
-0.027751999101957203
0.051093449702818275
-0.07628423146673902
-0.06996854445652963
-0.14368285831170863
-0.128317508912209
-0.17779704986231062
-0.12862415310480158
-0.014048776456759497
-0.03618643860903592
-0.1747493074807134
-0.09019739408075454
-0.09230288679734762
-0.11631660009261419
-0.08272498728107525
-0.10966614137156558
-0.09142338842045447
-0.07094974314893046
0.003958122290982691
-0.06338383813860249
-0.018111255055629043
-0.03290276301954184
-0.1163775680573624
-0.05874370244487323
-0.15852352913632178
-0.11373608068648972
-0.1100039959872468
-0.09791920974014413
-0.052749043022873233
-0.017192412043466235
-0.05844576685719034
-0.05951700405287216
-0.07079161786400648
-0.20804691687301308
-0.12818948904364544
-0.039623304289633066
-0.14034749186853288
-0.12135529620643526
-0.17434780460297988
-0.10842501531281384
-0.19021126820562334
-0.2753997091313896
-0.15743678337607725
-0.1790426896245353
-0.219278865693398
-0.19116581655255022
-0.19186522423594993
-0.21404267203980626
-0.15210896407350466
-0.23882307318446358
-0.17620746100108003
-0.2738712656324432
-0.2829734482236644
-0.3213519272408732
-0.24596080648804247
-0.31860385420133697
-0.32462122666595034
-0.2842958041602993
-0.2618794278703436
-0.36819895279008147
-0.33414115836261826
-0.4132834256432202
-0.34008224679044236
-0.36160759437462514
-0.35282336099562434
-0.41752871572633316
-0.2763132114932874
-0.3108708928795351
-0.2971271873518915
-0.4182864988609806
-0.3271711263889665
-0.45175786174992744
-0.49555255625960815
-0.40473088500926174
-0.47099070054094216
-0.5381157187461497
-0.5244709832943228
-0.5132103876584971
-0.5607519560099282
-0.48839263700334445
-0.5056774119544754
-0.5168950570741193
-0.5317789075974244
-0.6018612254528836
-0.5700901309677956
-0.6533384964367663
-0.690884937098947
-0.6378413264064194
-0.6617081824347407
-0.6552544922736602
-0.6844308902164516
-0.7199285099809298
-0.7223786503321041
-0.7732628627564855
-0.6438637448679524
-0.6763345015986135
-0.7133198646217908
-0.6779892533016424
-0.7597530361477229
-0.6722833819195634
-0.8042172487758816
-0.7820714381912994
-0.8560533295334085
-0.858589046789197
-0.7842742313082322
-0.8000897827543962
-0.8579978410286697
-0.8548035734462978
-0.7882413300153976
-0.8964288429959933
-0.8733957205494445
-0.8792031735657011
-0.9093458743471532
-0.902637533493837
-0.8678941838468766
-0.9631880015575179
-1.0014415931980352
-1.0654099888023094
-0.973711255979614
-1.0140723858202163
-1.071817251556701
-1.0862724683472542
-1.0140624437101027
-1.083181931384819
-1.0740113482337015
-1.067936179172087
-1.111152690750437
-1.0385595489308115
-1.0909525040274421
-1.1560429906826064
-1.1039017961229707
-1.1870696654856896
-1.125204658243278
-1.2959683655653162
-1.197800235037776
-1.1493225482579152
-1.180876627841324
-1.2065363652245493
-1.261689857345402
-1.237779303719732
-1.2713343530659718
-1.2300555234587087
-1.265559786525393
-1.3133149371335116
-1.29652402807594
-1.3689551178403856
-1.2625404494857093
-1.3131106249212248
-1.383562290523669
-1.3311476995933664
-1.3530058043134159
-1.4678862624889433
-1.3267608471977508
-1.3728427916843202
-1.3872086952662714
-1.298561343152908
-1.4034992525341128
-1.2955353382589685
-1.4663504300770913
-1.447034663463615
-1.3959597850841865
-1.4173047748839267
-1.4170852952383064
-1.5407431992867942
-1.4071894323692868
-1.428255889141095
-1.5900947856592575
-1.4953155836672543
-1.4134485197111009
-1.428132808414691
-1.477166183857844
-1.450715492552257
-1.4117168889863168
-1.5194717067349883
-1.4741583117901775
-1.4987827730472258
-1.3781347435761047
-1.4962338071476688
-1.5134861193093512
-1.5421763277251472
-1.5386214343411826
-1.5459460518144474
-1.6430082611587478
-1.5276138544219362
-1.4666958747220427
-1.462593689456579
-1.4585484447169852
-1.5069948374805358
-1.4745426291418593
-1.5316455455965166
-1.4934910238775068
-1.4136141277885543
-1.4541430774343982
-1.4893308732673072
-1.426077190049571
-1.5397922516000904
-1.4652727926769296
-1.518149872113678
-1.511426291420139
-1.4415676943812112
-1.4233839966753354
-1.5074888682154746
-1.4143761385095441
-1.4598327510478486
-1.36192787371433
-1.4133467747188373
-1.4468997630816611
-1.4043373755718382
-1.4333400450044205
-1.4674153879363416
-1.43568591287938
-1.4406432230363
-1.4149278144215853
-1.3668140944391718
-1.395682066570357
-1.3738284892261545
-1.3358456294729824
-1.39302696919281
-1.4116853096788833
-1.4360506677417222
-1.3567670148845612
-1.321287594790339
-1.4225718098399802
-1.1953579128376912
-1.3282474204723371
-1.3296322194229624
-1.2375487488782315
-1.2346717583502012
-1.2968573534060124
-1.1984914235359287
-1.215040710921205
-1.265557030927803
-1.2075479015849826
-1.238043122751583
-1.167357858333625
-1.1664351305953045
-1.1481002973280559
-1.1499807901848278
-1.1299193926893638
-1.09030432394668
-1.1490710275087517
-1.116052317931385
-1.1471423519192165
-1.0902386408954179
-1.163572089873529
-1.0667914273074726
-1.0017535176235333
-1.0946039064420765
-0.9462077670018009
-0.9147427221964349
-0.9715019370571997
-0.941013859590347
-0.9778653597313722
-0.9830511847253331
-0.9399421096635872
-0.8601669089226771
-0.7698784311439534
-0.728395265318335
-0.825139279442509
-0.8171544767112375
-0.7231319416052129
-0.7120208457659645
-0.7039616767951582
-0.7072378154479281
-0.6528778105636059
-0.7429916755312559
-0.6819992587411197
-0.6045923370903775
-0.7285993650527925
-0.5743032463887808
-0.6244675741186128
-0.6145940697755868
-0.5486338021426281
-0.582759017918841
-0.5493250760350971
-0.5276822534700362
-0.5097952859880333
-0.4716219321049255
-0.44083168249191784
-0.3988575579259927
-0.5176619393163606
-0.4063371364476047
-0.4642408359384058
-0.38038203507836765
-0.38030712324777605
-0.32668485683645226
-0.2810064441323392
-0.3570268085729093
-0.27968935375231035
-0.2639874976335281
-0.31999237770118927
-0.20012652323928284
-0.23138281844254388
-0.2721574858069735
-0.20564138682511712
-0.21555639591013526
-0.16334119734359204
-0.05827714575048723
-0.10992114630031002
-0.08939536101300627
-0.007223947787770996
-0.016269581997433655
-0.16950479310272876
-0.047739608470366714
-0.024372811452053573
0.005789638125353696
0.0029793611398353553
-0.01511105974382336
0.06929825187621001
0.08942044988137565
-0.02116317710734429
-0.012245097184553869
0.04830381748085146
0.14116609277042302
0.07300795887633782
0.1757235316916038
0.2002963416026947
0.2795624777826333
0.24256133661268714
0.24993560868502962
0.2668595483815816
0.3208827927854521
0.35028025827311043
0.2912663134611368
0.2617577243707951
0.3725088232441797
0.32189388065878294
0.26046765141329736
0.342543886094164
0.31813218229496504
0.3866850192839198
0.47633162503569715
0.40506900474056234
0.37025103267048737
0.4382777440147086
0.45416301095300005
0.4491584262794458
0.41611230392742243
0.5678404516233844
0.583653171910477
0.47893758152769494
0.5454338560654243
0.5335170958002803
0.6040272054971348
0.5347021109832598
0.5416680665145319
0.5522032138735964
0.6254910716414925
0.6549467547554683
0.6271985979233065
0.5785565621181875
0.5322927019133941
0.7619463509431303
0.6864827788046959
0.6895942344910111
0.5954549185653478
0.697365571184051
0.6808805866902777
0.7748487180597305
0.7280141103364
0.7095711595872116
0.7724661492174477
0.7552863650505584
0.8480749079972225
0.7646539185210374
0.7958335496325625
0.8556125061907677
0.8461207138725482
0.8279249368401501
0.8276347583993324
0.809875025461118
0.785038146307194
0.8576267949195263
0.8010519340180651
0.8356454593611766
0.9135836750452802
0.8953231843612812
0.8535514902785459
0.908776835990568
0.8782521880351382
0.8370869918145832
0.8926507871279926
0.8979262497140142
0.8982947641801847
0.8814339421462806
0.9308272160843363
0.8786397351439982
0.9384590413088689
0.9990069997004849
0.926389365170249
0.9876246065400573
0.9041758700043456
0.9767151511017368
0.8871565252262079
0.9498287805938739
1.0005761289299868
1.0441950941558988
1.1428778208842942
1.0828970620101346
0.9645749665435159
0.9743456999395468
1.057375357480412
0.9971326772334546
1.1104884774070627
1.0120575163775412
1.0408984839380442
1.0790921939488922
1.1152591022247293
1.125270498314446
1.086195094206891
1.0664118487081224
1.048064698232069
0.9997007549750244
0.9899857176727038
1.0132217624589959
1.122542957581116
1.1657857884346925
1.0800736141166418
1.0661054452613905
1.0455535285336144
1.0505940838362435
1.1562383101620293
1.109605795168809
1.0195787960301677
1.0776359058249443
0.9468395923101783
1.071055094878943
1.0820884505062407
0.9684799137100097
1.0636117695712688
1.0964649821418362
1.1282833800303567
1.0524138095614781
1.1461748263852922
1.1093614250525632
1.1143870973647605
1.0891547504889865
1.1396623802129024
1.0798236889908923
1.1996409676929225
1.028840289022253
1.025022125367514
1.1787952068824494
1.140832799300748
1.0243214461457042
1.1112839691279068
1.0523317661046505
1.2200616070986643
1.157128712057942
1.1463512982576012
1.0541271747595429
1.0502297825222646
1.1274765716393824
1.0615013472543005
1.1020257232616546
1.014545672875027
1.1331669477817838
1.0920238588110833
1.059520065623639
1.161975596204822
1.064233123897913
1.0899527485008336
1.0672250355199993
1.1136025343548062
1.0619321782140312
1.0145309347612423
1.0942616060571138
1.109296354465131
1.0570452346312829
1.08996963379223
1.1164239782088252
1.080461173860764
1.0923440080480313
1.0198287124481755
1.0271616722421604
1.0764446446492157
1.138353961453584
1.1219782963892144
1.0872282401263564
1.1657639696906932
1.112360662968256
1.0262989282071935
1.0357639985111706
1.0906537517781982
1.0669542886743164
1.10416620779197
1.1281367113047616
1.1919985369837554
1.1305675654875138
1.0931091839371152
0.9891940590551357
1.0068965956863913
1.0385889904887278
0.9672652611342625
1.0442173829018557
1.0097218442101283
1.181513556722024
1.0817108307238543
1.0664634529211314
1.1223127644118742
1.0267690387296071
1.0950172151238577
0.9825914678998557
1.0695045488786448
1.0627984328178977
1.0967067726089295
1.0788367293832124
1.0961968814036802
1.0880520989125833
1.0055740310860486
0.9708616756077992
1.1160035690191026
1.0260788614652052
1.0685628897519874
1.0381894836059637
1.0196389605378904
0.9929151286752088
1.0419073826703793
0.9723871098987965
1.0230810034510043
1.0663111445726485
0.914342959001575
0.8974296631200558
1.0397196306946614
0.9897192274246094
0.9569254723201184
0.9602158151959422
1.0633029869314485
0.9045720888012759
0.9160502940336994
0.9530615005837751
0.975325373098469
0.9247351152468626
0.9174937765597465
0.8513472703650461
0.8795836610272175
0.9181579703634434
0.9057848501371776
0.9471766282081177
0.9960055439257527
0.9433177344402477
0.9130250669427362
0.8454914334355673
0.8407387227018188
0.8854001503765712
0.8448143973416192
0.9391149408823336
0.8332142919166019
0.8191334519164977
0.910091535326969
0.8421137644823591
0.8276317535305044
0.8354960759683961
0.8316917228450361
0.7945474250097715
0.7605045906085977
0.9251136905309754
0.7309392180740979
0.7676171237204381
0.8286339677527425
0.7746045565427198
0.7832474690671075
0.7358821107110491
0.8359830018429414
0.8132951309474521
0.770520563246274
0.7976802411870498
0.7993401938820636
0.6753995500534998
0.8975557795757677
0.687509612391849
0.8149777307769985
0.7683577333639469
0.8491055529009917
0.8215194614151048
0.7019219912128882
0.6062670241361241
0.6870180547228201
0.6995699285749826
0.6934911724175958
0.5999446751973818
0.690829520277488
0.6156546040407515
0.7421698167113322
0.7104583787964764
0.5891518449765266
0.5555936468761091
0.5463795513056882
0.5882079922930865
0.5891172247887572
0.5703050562124354
0.5960888682984078
0.533785248953349
0.6277307627495066
0.43483938772817804
0.5837862697598561
0.5892843609261409
0.49068361239192787
0.5338679152917589
0.47224166595549394
0.49342741057668243
0.5411591344699525
0.3335350791958382
0.5764168547046401
0.39851204703448045
0.41178960946517096
0.4786407667694977
0.32656325003761044
0.4649933012053463
0.5218994196608225
0.388455563132515
0.3210669766693715
0.413852521399494
0.3915311957678674
0.4129074055962111
0.38024200732833185
0.29122526414005223
0.3951055571908695
0.27257431292450707
0.3945324855113617
0.3138484663446508
0.2737218452894396
0.3293989857376511
0.3312493431699163
0.3076708137037163
0.2900822288130299
0.3122832317665799
0.17340573219759575
0.28395641497851576
0.19996345075716898
0.32184401036774996
0.1470608226178865
0.18184457572937834
0.19999103103798826
0.23616934164531014
0.13556100214878325
0.21617375694934063
0.22142491523083474
0.16082133633799592
0.19020360219106736
0.16797636886188463
0.11669419385441701
0.20560597299752842
0.10721505098646197
0.25145112855340535
0.122894253985649
0.108551628733877
0.11541917447385837
0.050536219426737375
0.1258844592708581
0.03137873576258965
0.10700102457042573
0.0010131285778259697
-0.004502604933557766
-0.08614009729574516
0.01967072697744054
-0.09835962052762438
0.04458762883295812
0.06622730244207653
-0.11438527813914148
0.0380855780176246
0.05555374410217068
-0.007146832051048959
-0.008413220706601431
-0.040144963312763335
0.04180633994834576
-0.16362416095452503
-0.04534817762187768
-0.06758314955822294
-0.1482702560203332
-0.0949850005246243
-0.11958320711811778
-0.06877582329201105
-0.12845266393615945
-0.15214846639319524
-0.05355066839076048
-0.13931874288190293
-0.14101219101927964
-0.14556868458460812
-0.07778997840837343
-0.08653904448783911
-0.056484225481760665
-0.1664565057677412
-0.12796795576978598
-0.05296116962930743
-0.10847550919610109
-0.05692248859999652
-0.1385727782978394
-0.15043475333563222
-0.18922795363051764
-0.08794802382225578
-0.14543212685671042
-0.22174020160953123
-0.19899031162672115
-0.16281346253011728
-0.16251268896711965
-0.17928352076011256
-0.22529044106392795
-0.27297108721367264
-0.2441615214755677
-0.25503734279016554
-0.188328892187778
-0.14780001296827763
-0.17155589748251415
-0.2867294662607275
-0.19936316392608003
-0.15277065960934735
-0.13017589715211586
-0.1944077613344669
-0.2743663428174987
-0.07724858126700083
-0.16776097283136082
-0.25885037711650405
-0.2388177796214386
-0.09903887698518418
-0.2011140539501981
-0.18928188007816607
-0.16748421345815662
-0.10740697098982825
-0.1956037686492649
-0.13739673037985456
-0.18703531922038066
-0.14952809825726227
-0.22418754330629248
-0.23323106622508852
-0.21537218125718624
-0.24524939722512543
-0.25005783059785025
-0.2764701204775115
-0.21674298587789648
-0.19748417328224072
-0.2960818313178228
-0.18946406501788302
-0.22694331811030158
-0.14213586518731924
-0.21249563698840468
-0.20205078414370886
-0.15275298413262156
-0.11792614900779214
-0.1901936095865151
-0.23644273732700247
-0.1593196470675705
-0.17231500887978282
-0.20630490098560572
-0.12929604256637134
-0.08771238391071068
-0.16075576553576104
-0.16232537357403465
-0.13537861329952314
-0.15993862141346843
-0.17273152205865727
-0.10816451270391614
-0.17539909212878885
-0.0828518194758515
-0.1417253719681957
-0.04870783564879723
-0.12064156561365066
-0.1657090890599568
-0.1971248401366392
-0.08344765312144066
-0.18162913443803527
-0.07807703208874373
-0.14081981196144586
-0.15666190798387986
-0.11220823636566606
-0.041385149358573056
-0.12255553060166441
-0.16287504218892368
-0.15646983609227347
-0.09920619323771553
-0.12382246269426941
-0.18514049880145034
-0.17407297861448517
-0.13779665851099385
-0.044855761096046304
-0.10014085390287986
-0.0003040026405199542
-0.06797536826461259
-0.07255413724094185
-0.09862989408736036
-0.013517135624501603
-0.100135957218079
0.0631847856197079
-0.08035591678079032
-0.09485223351355072
-0.12514697318805457
-0.058913490371618145
-0.09913324717334665
-0.036700942421956206
-0.10486266117110216
-0.06458054887631474
-0.0743043040982593
-0.04213829928053146
0.026500375381275094
-0.040015731328334934
-0.05243364983609247
-0.18512866634686365
-0.05097063376501416
-0.012425724325348789
-0.10311155214790532
-0.08164735943444854
-0.013575980175159388
-0.12376341158444157
-0.016685888501336718
-0.052171919841338885
-0.06765625459253373
-0.07533729434909418
-0.04315548196056723
-0.00877435460928716
-0.026561325108332073
-0.035241526682905394
-0.03907508624917369
-0.0071133236028787655
-0.14624637726728357
-0.0423157763663211
-0.006756731569244903
-0.08677753637131855
-0.03414996499187656
-0.13792316421145515
-0.10361200547368118
-0.09103300710564728
0.0006380519413930891
-0.06995000449845855
-0.13277678036992624
-0.11744464025483624
-0.13163825752020586
-0.09573879887786299
-0.14170553231169147
-0.1373721257317475
-0.1413769849253654
-0.09288775690795711
-0.09467534267686425
-0.06558199741003465
-0.13264133762112934
-0.15389893838938346
-0.17321327944874748
-0.09074993428388416
-0.0989258564833746
-0.158579979828792
-0.17486799825018018
-0.1716928580590764
-0.17481960094516177
-0.09359547946383019
-0.12353492564799004
-0.17131572974318932
-0.1779024636475507
-0.15321771854645497
-0.18366562000223075
-0.2671555547237943
-0.1863064532872905
-0.2571624128587647
-0.21892014666803308
-0.2630874798240208
-0.27643906286952336
-0.2304922670336652
-0.20986217127561735
-0.2770098537053789
-0.36230538580797106
-0.3606997960747881
-0.304932167984864
-0.3035501982754271
-0.36171084455572966
-0.4086066194213049
-0.3263468544900268
-0.38970127137699734
-0.37150389256807
-0.47447053385449833
-0.34186953892649397
-0.3379726866434287
-0.4737036040799397
-0.4366398834501396
-0.34107000130861953
-0.4122391105490583
-0.44751335717323404
-0.43127391718207514
-0.5488524693224434
-0.4215826702079651
-0.5302866476454168
-0.4231315782068261
-0.5137412326440978
-0.5989695838996338
-0.5412691053537745
-0.6242320061207115
-0.5339025351165474
-0.5992713999427473
-0.5345955108022207
-0.6846734990152529
-0.573351635325439
-0.6571771912670273
-0.5662981887097801
-0.56320270657448
-0.6416066523771587
-0.7651262724115132
-0.6549692385208532
-0.6631495172634635
-0.7922814108560146
-0.764044818935294
-0.6553324463626303
-0.7759683333553193
-0.7291670674066544
-0.8231792676155997
-0.7931542689892357
-0.7937856176217843
-0.9355861223937784
-0.8285759039007657
-0.8697302424743297
-0.8219613203489743
-0.9505425242657691
-0.8775637697372498
-0.9230541526625791
-0.9421834772047297
-0.8875020145984672
-0.9473570969126806
-0.9598976873885243
-0.9477057868570556
-0.8864840068268147
-0.98724393382338
-1.0022041001494593
-0.943465563298295
-1.002883818238343
-1.0182520640311548
-0.9411818599347077
-1.0543885141258016
-1.08748394870505
-1.087537751482352
-1.0834908188113976
-1.087439248765336
-1.1091098599288907
-1.0632770310476045
-1.0868019669157212
-1.1385024929186223
-1.1209123445200042
-1.2451071751824716
-1.1278190073492629
-1.1984282577487482
-1.2102843125371276
-1.205470233936868
-1.279524800963276
-1.2091095882989962
-1.287660206476888
-1.3071268464707206
-1.2390616786444897
-1.3025633641416337
-1.3745420722191914
-1.3692504901370686
-1.3302917011923225
-1.3164795872079622
-1.3761334156604423
-1.3661413706666903
-1.3577690506259674
-1.352025459461659
-1.2933061487809199
-1.4408944210057495
-1.3707116598743947
-1.3840692863344148
-1.2470612899116724
-1.4458583431689787
-1.4185266255927704
-1.3329404462847252
-1.4377918831890875
-1.3588471007193634
-1.4231949758441014
-1.4324974767635803
-1.442422670399868
-1.4398082514399857
-1.4864924222636593
-1.4819981823452
-1.4092729467384133
-1.4197538254338913
-1.455169221848386
-1.4617418879498514
-1.4289420936828774
-1.4669089620812366
-1.4268342718440479
-1.550227927846643
-1.572544534147428
-1.4741204887744626
-1.4795887009201316
-1.5491277704220268
-1.4725077709812833
-1.3998163114217201
-1.5036306247994742
-1.510560534668258
-1.4672961272196732
-1.5450471051784447
-1.549464281066777
-1.479786498329076
-1.5232987243083178
-1.4261190566610908
-1.5488552644676783
-1.4466316342397194
-1.4542677614464907
-1.438999449119573
-1.5334446613015302
-1.4932163461491603
-1.5213096041920426
-1.4923856492237972
-1.4985338291767756
-1.5528534220922774
-1.505904598456683
-1.4268577646861813
-1.456882967818819
-1.5215518168748952
-1.528235412384578
-1.4506672505275167
-1.4054936284897024
-1.4476897040355428
-1.5066839116888908
-1.4473097414651837
-1.4154481100037943
-1.3403190529411049
-1.3692328624227608
-1.376125957585165
-1.4341079854377292
-1.3626570370624642
-1.3288476814052073
-1.3877512113607593
-1.3432233677481014
-1.5177136522203116
-1.29971715308003
-1.3386258327713072
-1.3379409678041443
-1.3790556650805994
-1.2978566279005117
-1.2612607383029752
-1.4215039825379403
-1.3006380845252827
-1.2427266781182733
-1.289433954975836
-1.166663034059495
-1.200048972413723
-1.1025374081836974
-1.1079106349417376
-1.1795585497440633
-1.1268691878365593
-1.2428676492158166
-1.1255470672795032
-1.1786914567363238
-1.14550248008967
-1.1678067866259993
-1.0752010454422096
-0.9729618996183292
-0.994787699006187
-1.0934108241244158
-1.0289957130663538
-1.080413526787863
-1.0789908430870674
-1.0369721738929467
-0.8696086107124928
-0.9296420724335545
-0.9539647398843663
-0.9460686744617255
-0.9239920868438743
-0.9289201112458294
-0.800669389848654
-0.8794067078230986
-0.8395232242352213
-0.8453161531731554
-0.8857275322283918
-0.8900819952336185
-0.7607050591939748
-0.8004023733052987
-0.7673580200165135
-0.709282099791616
-0.722558342333363
-0.6682597424318861
-0.7726019891052041
-0.6922021610317702
-0.7081370091347496
-0.6545501086780874
-0.6305931249449365
-0.6580990910193979
-0.5397351504579775
-0.5694588693353784
-0.4396156284926182
-0.5032552583927855
-0.4916227214626036
-0.5169140844922836
-0.47582460508074004
-0.38492649142357693
-0.5414269059421202
-0.40329598983431814
-0.4153551866003846
-0.3558305124063502
-0.44709976444084704
-0.4010301823589477
-0.33317357341370274
-0.31158949330886326
-0.2667562753884767
-0.3106375242915185
-0.29331604617691637
-0.3044214980323707
-0.28903951079123763
-0.23605606553825062
-0.1563104010309038
-0.19290055380228974
-0.17424502554607862
-0.22024886414555483
-0.11315096420240325
-0.09410170697936544
-0.08758668710614184
-0.050647187591045834
-0.11935605284762563
-0.07261173731698062
-0.030642459620036023
-0.10470811252759393
-0.012994216592356125
0.06510819998294491
0.102101438214472
-0.001174800723362901
0.07482299643969806
0.10417380334141758
0.0658205981140584
0.07229069583274639
0.17567695902996994
0.236348535687041
0.1426730505075462
0.14163715142479544
0.22096385923064474
0.23956142735316394
0.16848398765510852
0.2526051577244797
0.25281227870571227
0.2666017822378714
0.22391827868573183
0.28067747690435363
0.28228484600298154
0.42463137220681774
0.3861787029282888
0.3304174443929281
0.4298315471506878
0.3235825344008344
0.41201933986616807
0.5146168229177409
0.45867719520282685
0.45106212950506175
0.3961976161038093
0.5429789746554937
0.45726039965047155
0.45130381063187547
0.5261337194039155
0.5223193544869048
0.5541336141605042
0.5413981132477639
0.534442985106897
0.5186456342066406
0.6026127211681361
0.6132881207430948
0.6420175835508011
0.5912075331644648
0.632700353589841
0.6801005122428401
0.5871712703695133
0.6868803237376923
0.6087935349911745
0.7379124619609492
0.7354245640301016
0.6783060781810358
0.6936624669290312
0.7282701539159994
0.744573774503793
0.7267075271832002
0.7609560655295692
0.7550050885306105
0.7853178757352338
0.7864230693030728
0.8410052590735166
0.8418254815691006
0.7254544434207337
0.8936105609126409
0.8398537955338816
0.7862763390981322
0.8051503849029854
0.855768776552636
0.9157342957440299
0.8233081677638387
0.8994540030356482
0.9021981976672199
0.9766812273550742
0.9697114215455488
0.8560429410053442
0.8837110945687091
0.9162039044745349
0.8885906887377167
0.8403545519311232
0.9425062794651912
0.8938395101245351
0.9971817915584615
1.0113258900892854
0.931888626165792
0.9527983933807299
0.9608260838517236
0.9470663701751567
0.9996727366870345
0.9797243872253741
1.0393319270677925
0.9492584959548147
0.9520430102114568
0.9685950645515249
0.9830903809540054
0.9813497704132202
1.0016342398886071
1.0570014594539683
1.1144204124696135
1.0288041607628398
1.0370127859354537
1.0228367942512522
0.997780281492564
1.1491120087724283
1.0410793828823612
1.0726974789581563
1.1269207612374268
1.0499018611583488
0.9873041641259932
1.0882792984753284
1.046029454679561
0.9810308646267742
1.0379316164445278
1.1024880842860807
1.0482328095099938
1.1022927057065428
0.9913993162273846
1.0463492388329625
1.09023424719451
0.9874349799464002
1.1523611554081432
1.1376513976653775
1.1321676688981257
1.0440549716986824
1.0550962714678984
1.084862192833356
1.2054014495498955
1.0833798585123597
1.1042444622013876
1.0829197769682306
1.0843424833860464
1.0629871863744824
1.1895562368349868
1.0769077709575057
1.0533921191653213
1.121813309275904
1.075608950600752
1.0263439126676102
1.1636375888313903
1.0683581519990613
1.015878226032436
1.125197371352424
1.0773065748251784
1.1216130211774136
1.159118242264913
1.0257599868830716
1.1851164362366757
1.127856138337591
1.097263679794724
1.1366682380056887
0.9767026790731883
0.9550633443522152
1.1347140727168297
1.0706470572768512
1.0803005038077413
1.144819847190234
1.1028100561019916
1.09807932106156
0.9483570836663247
1.027074485616856
1.0833192256919904
1.100550338339169
1.1023907936475932
1.0819343922527969
1.0062557122113995
1.064774396355072
1.075416924366477
1.042736098075403
1.1056776129022103
0.9445827121087275
1.0204946226708196
1.0653374074630433
1.0664063725470256
1.0824651820405014
1.0458752216975618
1.164019306503207
1.1174523130324243
1.1803510942828066
1.207644162888596
1.0720115389862517
1.0429491603615104
1.040604318852881
1.010517309885858
1.1525779573483343
1.0383266325303624
1.0849416224339923
1.0659798377702838
1.0070534522077315
1.0572733795645906
1.0765923518980711
1.0317368785737555
1.0636952373815083
1.010712293052145
1.0809048323947221
1.1387695614165732
0.992737286497331
1.008272440628496
1.058650075161631
1.0811624554902861
0.9607166990369747
1.1264331324407961
1.0199174010698233
0.9742652167373814
0.9452288372474305
1.1149206234766083
0.9984747508337011
1.0424922983804483
1.0793506070226933
0.9464198558818202
0.9504237278830203
1.0760532793966884
0.9852418035592633
0.9771488033654928
1.0791152268267343
1.0802912717092101
1.0820364049759879
0.9867546512150607
0.9643834648164972
1.0060431376213896
1.0422542186595036
1.0211163692971414
0.9317972490513856
0.9457316450149676
1.0114314367546149
0.933333029273992
0.9784067342660253
1.0379750078708974
0.921846374742413
0.9581354279365154
0.9859189999750141
0.9475883663294071
0.8567067344650794
0.8599652544679525
0.9448876649246475
0.9575678084066676
0.9364823940437024
0.8823573323663234
0.916527910564587
0.8225638795516709
0.8249371398031715
0.8379410016963812
0.9130945990429477
0.8087301850998949
0.9374407642644379
0.8260220114875679
0.9971032392220975
0.7788043059136573
0.7925483769921365
0.9530569786024338
0.8177543053705583
0.9109353506436542
0.829995399251662
0.9291750744254872
0.7556349183028463
0.7850650787002402
0.7589210889562432
0.9050632734132886
0.8381794978632348
0.852300941529678
0.7081840384712892
0.786739476915618
0.8118820542678655
0.7786027418159623
0.7330004589868316
0.7546149733017782
0.6208659712571213
0.711207090391768
0.7551396238950318
0.7481918881946878
0.7273287465801467
0.6165785549795634
0.6587890413963787
0.7209114536648158
0.5933488985934355
0.7084358957459427
0.6626827009460515
0.7213692603147465
0.6396751490950618
0.5537260019742218
0.6662271021744743
0.7265277372940343
0.5537596590637247
0.5541983702123002
0.6050686399925296
0.5639449431800749
0.5997072111182065
0.519033555055091
0.5317969151782321
0.6111725233202929
0.6565451177482019
0.5882032526133206
0.55711715066584
0.548196181613545
0.4672448870264219
0.4381413382818864
0.5460253964149624
0.5179493577878276
0.4551327610657271
0.506451982746308
0.3889514399762026
0.497243454895417
0.4721798449579919
0.526574359007441
0.49224664816503383
0.5001772885589038
0.4157962332927504
0.45792890982048434
0.42458317203537504
0.2843287220767319
0.427627189048721
0.36742112748715533
0.5011309765420697
0.2870853442583291
0.3849911756686812
0.31473288047908893
0.29225322522250463
0.24671398587176935
0.348377445375535
0.29028519638426875
0.3032583386190738
0.38337690829544907
0.251458328300427
0.3219743762353848
0.2510738133429492
0.25545430694897925
0.16413285021074614
0.2959170566363311
0.26340584512438403
0.12096920840488597
0.19546483044870286
0.18254234458817936
0.24035273472052346
0.10076105286114803
0.21220958054640277
0.2004932711475135
0.1892719173759442
0.16595620110363546
0.08416882243140439
0.07375726470332367
0.09799785204026741
0.24463563571338587
0.1553706228869755
0.09063187096323683
0.12959341629425142
0.10433920796870456
0.08103225662286007
0.06388264202739656
0.02196707857306804
0.09555756902811238
0.13827584895088027
0.04064441403810552
0.06910740569397576
-0.05415144660691463
-0.023420565177757792
0.013524173081067535
-0.0033038165162348754
-0.03763163798346342
0.030150418416661336
-0.04749608728934572
0.0031287514582637177
-0.0407389794701432
0.004187866605994066
0.02276536981247544
-0.08285862733386049
-0.102430808471594
-0.033654392143165235
-0.029094854835665228
-0.1525306676213973
-0.03475116383295661
-0.10924926273494144
-0.06226747047088456
-0.16495490840697755
-0.07315355460569387
-0.1546596612213268
-0.0007971813936010208
-0.03637092045655879
-0.1109459607944634
-0.117667490458425
-0.05851429649885913
-0.13367998595876626
-0.17253376016589544
-0.16972493170700242
-0.10216999566889866
-0.10327180217707241
-0.09900657478771076
-0.16341620424051176
-0.18127144279852636
-0.15590355159830652
-0.19900190186385094
-0.13374732687681284
-0.08418879428529544
-0.1860224775579283
-0.2197034755730701
-0.17531975622647805
-0.0898353464141824
-0.12092940311636216
-0.27785246988577794
-0.13579093923621005
-0.2504225577065709
-0.17562469276814824
-0.2259119241156888
-0.3062107252963205
-0.23225219350265658
-0.12480019825625548
-0.104500119775429
-0.14489905705206324
-0.19298826293233634
-0.13850172457242743
-0.2389350111598704
-0.18975214256450434
-0.22531469329185258
-0.12891094653053353
-0.2194730680166612
-0.15037209174122593
-0.20148838182498757
-0.2511667898309369
-0.15361251577946694
-0.21476961971166472
-0.30025579579795614
-0.15625657837296666
-0.23029237685879989
-0.18041746991442317
-0.09067018131053267
-0.17870600716306234
-0.20664483192550032
-0.12773767085337862
-0.24284634947273295
-0.17577374511723204
-0.1642693269788463
-0.18464819676273558
-0.14838092548331708
-0.19655186093799426
-0.17665307553824303
-0.27231679900697475
-0.08949143282536151
-0.1912194715067084
-0.1801528939263498
-0.21795928186798263
-0.18054966425888136
-0.1874637863295197
-0.14483310928680837
-0.19508106037503625
-0.12129629186018479
-0.169760469642811
-0.2465756041775808
-0.16734002032712939
-0.07222334729868587
-0.05648327036227249
-0.1437482520403834
-0.179674885102795
-0.12879860008886324
-0.18562041695829237
-0.09416346234669243
-0.2004185191068789
-0.1773225020822738
-0.15827897113301895
-0.16536223575858708
-0.130281513305704
-0.12304897997047665
-0.0545784034171175
-0.0957304554997176
-0.17459994853727068
-0.16892401616714892
-0.1511633321653308
-0.11600208505284129
-0.09742899425886128
-0.19500131866529258
-0.12696421660429796
-0.11381132932429984
-0.09836693825743313
-0.08959559612465719
-0.04743185912679916
-0.1045663681048101
-0.05375475367012239
-0.07611963967409159
-0.07569504254797992
-0.02542726744478401
0.01647088256240639
-0.09681241671036606
-0.05765319671380627
-0.08447779063165468
-0.057464711199098725
0.004855897450553259
-0.1323733559933518
-0.1267138839949749
-0.05736857509000204
0.02023918502063747
-0.014377843971822075
-0.17202648278698068
0.03416906691219069
-0.14936753983986462
-0.05995973399714974
-0.03165896510016777
-0.03578684916772301
-0.058073002175214994
-0.10443808351056942
0.017276361812202753
-0.0707224891953315
-0.017559783197493885
0.03034476473600177
-0.11738562880018426
-0.1534157277071036
0.0033939506514244627
0.021982394337444505
-0.020615544206668036
-0.09129842736021385
-0.08878384013824853
-0.04681324293712673
-0.029624206962926516
-0.13365547804575734
-0.09300671298582397
-0.06551244376738583
-0.09055800277994407
-0.040642627861989106
-0.06084013497681253
-0.02333996132982609
-0.035622962845255075
-0.13526640038698604
-0.1336211805113198
-0.03004037037034761
-0.12130838923193137
-0.12369788817469814
-0.10622928333762531
-0.08486226430172156
-0.07879842839161266
-0.09662184144598603
-0.1021197168889174
-0.09535271947590354
-0.055500168262196045
-0.10136557294078617
-0.1053384914396987
-0.07883842402549801
-0.06397506632403994
-0.2425226726286801
-0.10197212939943043
-0.16190998356984265
-0.19829887840921767
-0.17766348313411837
-0.16277918048774268
-0.18968464735792934
-0.1876405439196702
-0.18590293208973743
-0.20797149035038115
-0.16427124489387268
-0.12292245726423998
-0.19849249930879953
-0.23739094077521297
-0.27041301963393827
-0.10946051400800946
-0.23808577647787835
-0.20901155327743395
-0.32854347292922226
-0.35211367993928044
-0.21090110911975385
-0.2758654770169557
-0.31812292464399056
-0.29827594561983184
-0.35440995189837976
-0.32730749906876205
-0.47274520844639645
-0.3134420479929569
-0.2858711931786021
-0.368887251682134
-0.42982539007309273
-0.446300561564347
-0.40783084761427
-0.4122016543299079
-0.3579379222908797
-0.48475540739465683
-0.4366966195044162
-0.47968693006468766
-0.4359436743988238
-0.561298756762555
-0.48272046510568684
-0.4401716632522422
-0.5485049005657291
-0.5740805678990824
-0.5308164916431095
-0.5149588006212306
-0.5310061881825965
-0.6279699253674599
-0.6310817863417839
-0.6707168723407472
-0.5924577379471903
-0.7238193609682254
-0.7284643698491016
-0.7373376837016147
-0.5740281929484672
-0.6030682772626064
-0.6606160278233026
-0.6333934754485548
-0.7199382813558147
-0.7355519450489042
-0.7521964227749356
-0.814091887469256
-0.745892261582755
-0.7477494584702996
-0.8495912024035326
-0.7372867930173117
-0.855613521956674
-0.8024651178030802
-0.9223058781738589
-0.837791344715583
-0.93137426538939
-0.8243138601277509
-0.9348294808135799
-0.8992905572832922
-0.8848032367906274
-1.0287554229335913
-0.964598474634775
-0.9461457755606794
-1.0031739577419274
-0.9953011670476017
-1.051162676984089
-1.06167892312192
-1.0475107007742657
-0.9487429732408132
-1.1015095801596877
-1.1141014954777007
-1.029776230858093
-1.068840055069026
-1.0115512195070202
-1.1061302291239412
-1.180961653316318
-1.181487155027415
-1.074556441167204
-1.152503554358209
-1.1466805765865276
-1.192953135938918
-1.1696221883091478
-1.1232539934002794
-1.2616357640510585
-1.219580193008711
-1.2339152115592222
-1.2411743987290602
-1.242378322571645
-1.2592162719946303
-1.264987745298628
-1.2453209469434827
-1.2869339169119276
-1.1726885981606778
-1.3768974279982304
-1.2006971965782016
-1.3212550822769917
-1.4455421012019192
-1.3651946261067691
-1.3808439820991805
-1.3217871122405151
-1.2984089646851975
-1.3359208664048638
-1.468264763549487
-1.4251510894347872
-1.3970679420462477
-1.4241960510738425
-1.4524697208041721
-1.4247806304260822
-1.4595448025662168
-1.4999717822027947
-1.4523328269438252
-1.4392955524219242
-1.423469286126441
-1.4536179658427126
-1.3931436580897436
-1.395281268627538
-1.511926778617291
-1.507374557896563
-1.5118053341493423
-1.5320762092186893
-1.5738831349353455
-1.44891286135287
-1.4449181600060104
-1.5038669059478829
-1.5727522717644586
-1.4649853088355973
-1.4838093832621129
-1.5051970359553226
-1.536726150522824
-1.441650491206926
-1.6270299364568348
-1.521544611684213
-1.4236387830151425
-1.5728351746816376
-1.4595959598106756
-1.4983190279256628
-1.4687123183204434
-1.462710752595413
-1.5012853175138476
-1.5296779234838636
-1.4970437639072358
-1.4670677194541726
-1.4319019183092232
-1.4591140043354138
-1.440313711175955
-1.4660676663604157
-1.3857350965241364
-1.4762763809667168
-1.423811283408494
-1.4497457299262153
-1.4666430408913185
-1.3415657831020718
-1.443495172863079
-1.481107788543329
-1.4394240209024614
-1.389699823960155
-1.4310179042727227
-1.4166688453297391
-1.4613802709798056
-1.4716812883026869
-1.2866110983317973
-1.4765544164051825
-1.3599332254281407
-1.3884967636384336
-1.3182994478365608
-1.3200660361771572
-1.2865775917655244
-1.3002261596747287
-1.2988512587364922
-1.372945136799037
-1.3542685913376409
-1.251674811097525
-1.260971133124483
-1.2260040783382251
-1.2796246423983193
-1.196111812205101
-1.2879018788128838
-1.2630031994074606
-1.134592260980133
-1.3312192422567524
-1.139992167611184
-1.2410246477876283
-1.177759144851079
-1.1641162716038744
-1.1637855889596973
-1.1210442190722634
-1.1983427001955311
-1.1410497723544062
-1.0552802552437668
-1.0737176208523767
-1.1033706577778455
-1.0175712527466843
-1.0262995678427551
-1.108310708235221
-0.9433922616680148
-1.0137770590514183
-0.9449341089064188
-0.9138208250155793
-0.8739338688214578
-0.8757817282479365
-0.842274412407965
-0.8731580331887813
-0.8476871833293783
-0.8696799066197812
-0.8307145316935369
-0.7592906992738051
-0.8921673615906092
-0.7605756065896531
-0.7669626442281646
-0.7609950904356327
-0.7891916657749126
-0.6770620828144821
-0.6987806125113315
-0.6491045700797712
-0.7283286529651124
-0.6579922291369771
-0.5632316501920771
-0.6368976154067849
-0.6563291621886584
-0.6449211328275566
-0.6390627209621627
-0.5483966165151454
-0.6187791353163218
-0.5103340953862091
-0.47978311497347625
-0.5743586424824733
-0.45147515711042274
-0.4819773630760651
-0.48881763680218615
-0.4494642838047588
-0.4292958559919811
-0.39635254675169623
-0.38002242593207236
-0.35768257782190466
-0.30170193083404734
-0.37814220690664235
-0.27326461051248385
-0.16811329927469942
-0.2771754446461986
-0.24790628036601378
-0.2300348349001996
-0.2676870205749201
-0.2937680218141689
-0.13748851629160833
-0.24513242089321147
-0.2028119703224186
-0.16183256843780597
-0.06253558810626011
-0.1341143789396016
0.03220119782763824
-0.01670869807616979
0.008293449174557342
-0.0019185232203449247
0.021280404121650047
-0.028444849720522858
0.06510389903419468
0.051550506726391686
0.08880459394367844
0.03175160835943707
0.09513585896486738
0.040996971860889464
0.1304207691100772
0.11199614586717282
0.1775769387896973
0.28355552446004734
0.11007117140118086
0.26889890422595497
0.2330251234764
0.243173796278895
0.25115355605223344
0.3761725597965283
0.2256345769299019
0.306003594901298
0.3471899190485131
0.24354457628684356
0.3821008121428868
0.447606325087881
0.416395239249778
0.3433736015556513
0.4693142823169594
0.4018759705212621
0.37486575629404145
0.44915774181103274
0.43606277239676206
0.5398904569270699
0.5004761494833477
0.5349853525731522
0.478895607470861
0.5433533412270534
0.5472388553832664
0.5437824467902735
0.5844112159456403
0.5022490625422562
0.6518778114419728
0.5602550031744771
0.553934176700308
0.5677657830038898
0.6818477312003065
0.7265658613608018
0.6430755900551819
0.6816686181439591
0.6214607686845656
0.7369555533543203
0.6426829881094057
0.722278651132214
0.7234561575334522
0.7555155851538295
0.775531421006554
0.646227633146748
0.7809492115767963
0.8401539562244941
0.7101447491554339
0.7466591498683588
0.752887537332123
0.7508217805337714
0.7107667317568096
0.9219596100136453
0.7974997525700612
0.8171668710091821
0.8565301577377048
0.8222078009289936
0.8849023412955223
0.803171252400475
0.8627345501672018
0.896498233084631
0.9190654100248854
0.8146894140138421
0.9413939371879934
0.923729169663481
0.9848256204553882
0.9184162003433352
1.0316073932984762
0.9462113141346877
0.95778812992398
0.9816564510639824
0.9919308620415106
0.9237290380593912
0.9524441821557259
0.9670802460875105
0.9345738452576832
1.0133588928119492
1.0113951922385915
1.0756823656524381
0.9558109769769704
1.0437157275110054
1.1082994634315406
0.9943381369505419
0.9763708865612467
1.0189360354113777
1.0032554973455838
1.0406421904532288
1.0923623560572169
1.0346193931771506
1.0775887617669184
1.0982027412578892
1.0122273209017263
1.0419773160956158
1.1449738680547115
1.0503607286353598
1.0108676460213895
1.0659520646792506
1.0597054373532082
1.0131089157211715
1.0481880950976932
1.0759594533680816
1.0969214519127453
1.0471924098294696
1.0151702016021273
1.1060403664283789
1.0299389339228835
1.140965568133797
1.1120126215705466
1.0539171762785484
1.058836667753612
1.0627243580802843
1.1392518765772788
1.1129279744337042
1.0698654026771042
1.1225042621537222
1.048526609435713
1.0906804458015025
1.0597542224080347
1.046472642703727
1.039934554203165
1.152690880532953
1.0714018864260562
1.068500604313821
1.1383832276867796
1.0350564392745976
1.1448661440322274
1.0630658765635812
1.07420341834591
1.1815423368854079
1.0353075102637674
1.086918210541929
1.1234759763651339
1.0459917553391809
1.0578549762595622
1.0657698576007966
1.1304934836034601
1.1096968422977729
1.1003882339920363
1.1614196362373326
1.1154411158516024
1.0792375474779823
1.1281131946098253
1.1849910648469506
1.1786198774739656
1.0486596689783605
1.1341361154698992
1.1734528673616862
1.0636096009472524
1.0786847574450074
1.222163137725909
1.0721018799606237
1.1128491975423516
1.0706870559137989
1.0435028818229943
1.0194770109246463
1.0493329453987785
1.0696390542360823
0.9959073175843446
1.0515444426489216
1.0254917198788143
1.1809984707470962
1.0075301570350912
1.129752520154057
1.0938854357589947
1.1297718735640345
1.0784362230146174
1.0488061126176214
1.0970778058521367
1.090452122161997
1.084248703277115
1.0463013842357773
1.0720363137200843
1.0362008593060048
1.0225251110319489
1.1052584915077808
1.0423455415684575
1.098372596132933
1.05027684037505
1.1771316061515522
0.9918184799321482
1.065334235355335
1.0352691010393864
1.0840242977295207
1.0144907852191276
0.9830929822893545
0.9929997697849761
0.9753230582990698
1.0522106348665892
1.0257233021849148
1.054963375247156
1.069559556442107
1.050781118176662
1.0613497352508625
1.0649510284561594
1.0731798266630497
1.0526751439491526
0.9923934369597363
0.9363465373225466
1.056021494697931
0.9889908250244309
1.0379936523970494
1.035714029285973
0.9693306777846412
1.0531951181378962
0.9895998166111921
0.947234046732442
0.9460871978039599
0.9640533970661592
0.9528329976078884
0.9520208395184443
0.9640862842549198
0.9394303160490587
1.0309813934605627
0.9473013940785925
0.9010537039643554
0.9571157143630309
0.98586033230891
1.0055851536952731
0.9749791667063662
0.9252152026866072
0.9341497899591845
0.8565400513996156
0.9334069366548068
0.9118727827732511
0.8547877635702412
0.8598241928287762
0.8870369841164714
0.881634619895193
0.9410311924959467
0.8232438232100637
0.8745558882218862
0.8807110249255115
0.8956539774903213
0.9397984397654942
0.8687255944247336
0.802649162395363
0.7832223266290649
0.8415357510583577
0.8103941514340562
0.7907833355252731
0.7962240418772648
0.8056147918357183
0.8071702973484343
0.8732111270478511
0.8391047899283393
0.7869425198977048
0.8350703268744151
0.8016247165037386
0.7969371940176306
0.7705563831723977
0.6960749917984026
0.7771453555665111
0.785565577251363
0.8037172725468396
0.6787258169302857
0.7977390049206707
0.7791387684124848
0.6924165571890112
0.6580372891111268
0.6535645031364097
0.6899661307164369
0.7362842215688754
0.6192601654515064
0.6807195313820227
0.7051309045627325
0.5971556205819067
0.6437739674447472
0.6201558481744168
0.6010940849154102
0.5796101508558
0.5622131700268467
0.4945821678808636
0.5885137365995251
0.5546386862125797
0.5622540991570929
0.5775474952909511
0.6191810255861206
0.6353158461773448
0.5033448858890255
0.5256976137728371
0.5065112603391634
0.5635950694257331
0.49358052446081907
0.4170528351162207
0.4353759146476838
0.5239993095965566
0.4247157741614572
0.4574615455875304
0.4386782939387969
0.4490399529922631
0.4369525237032338
0.5252797377861435
0.43563112786084157
0.4810883581945878
0.4206393320882282
0.4312271769290901
0.3463284261944873
0.4535655337899839
0.42905554946082003
0.3739851464078344
0.34172363849692616
0.35208027891588917
0.3865500191207163
0.40423819759336244
0.29664937613420495
0.30779040909379357
0.33697205039696904
0.3394444793302916
0.28005380585482087
0.22861159706244769
0.26630000986284436
0.30896262047453443
0.3560811302590806
0.2157579145289772
0.2025928131190378
0.24873899176062847
0.2515709960433422
0.23514817005690836
0.3449679149964525
0.051545122258936316
0.14495930684919411
0.23169734811863016
0.17062239267436316
0.09689034076258488
0.15091866380170998
0.15494570637313426
0.18174686140045893
0.15161085709558353
0.07674900272276217
0.10718195986053873
0.10611814124262597
0.11692444583599246
0.014818570178877305
0.14608740098811968
0.04531192457707253
0.07136514991824815
0.05913044771693041
0.06552299173668652
0.0024313758933321578
0.053884534405394355
0.04234436808643842
-0.04333513883761928
-0.0077679188727387966
0.05322141257164668
0.05266006799486787
-0.04179864439025634
-0.008686197825032523
-0.006351245383147273
-0.06790880447725975
0.008238373134003933
-0.01703532752095646
0.01855614035532145
0.07590553869406338
-0.09698469913855927
-0.08422244114041032
-0.09972094604115722
-0.05905488190317237
-0.08730735648697736
-0.08424585481478938
-0.13522813994681135
-0.15948756123602342
-0.12705649666133528
-0.07245120508080866
-0.15589138355375534
-0.08685760522514395
-0.06586495462856337
-0.0876503015699995
-0.11824758469789001
-0.1497025177473953
-0.16120693301494046
-0.19881662535134986
-0.11770971208477415
-0.16905232880790352
-0.15530688534354886
-0.0942981532226115
-0.1737048217506664
-0.17781895187724842
-0.25001363396317383
-0.185752845966295
-0.07777261547518792
-0.17229342898452332
-0.19040921288733156
-0.12018288421037246
-0.15030270977940313
-0.21152760680260518
-0.10850305606368332
-0.13929923308580616
-0.2500447377051347
-0.2548841865895749
-0.16411302574014203
-0.14183034070784806
-0.1527594638930534
-0.21663868422497012
-0.2326356547843064
-0.21592743855354102
-0.23205124222980683
-0.18010291528882624
-0.18363137704531102
-0.1859919363486429
-0.24931274223726982
-0.1283326296130809
-0.21077211737947013
-0.21035292640058703
-0.16416994294965548
-0.2320188052845473
-0.17901024291551906
-0.2110697729837149
-0.13855001988442583
-0.12162734662334636
-0.20303065279595828
-0.27135208548746664
-0.14378317549447414
-0.10943783092280301
-0.17658443386927497
-0.21429748241215407
-0.260870464177932
-0.2364877267777169
-0.21443844888383748
-0.15715308039463707
-0.15246574379170283
-0.14421351930604473
-0.24542231497091094
-0.20166141364167398
-0.07129153175731066
-0.1767894130581841
-0.11730516821211884
-0.08385252213847631
-0.18276416309190555
-0.22319726579346436
-0.06288486855592153
-0.2091139311933332
-0.12311775724573965
-0.10612170774807989
-0.1073321885588563
-0.22662639408588978
-0.1798507533595713
-0.15460656259424777
-0.09523292425502414
-0.06933698689279834
-0.06231911124998804
-0.1649816487104268
-0.1149189389766323
-0.04274457637893671
-0.20940503976684827
-0.17010267179216002
-0.05373800770240178
-0.11125106551114199
-0.08671353946685174
-0.11742160976103157
-0.14342213591584363
-0.11859018497949582
-0.05929170900788603
0.0510702153548441
-0.1097201602931671
-0.026948112954237546
0.027559522193399563
-0.06759633094048038
-0.09479271308487136
-0.07653653031059075
-0.058390349220627455
-0.16763105556974803
-0.11161563791311577
-0.03603918234418083
-0.07561602312946905
-0.07573942732385706
-0.08939475339188656
-0.16010141819819834
-0.1036507524349923
-0.11074547051652467
0.013264168950310934
0.00212108167629442
-0.07598016754453402
-0.04162379109560929
-0.1121315044865253
-0.058343829176543675
-0.01774460363434756
-0.028191252199182535
0.03981953570618784
-0.08638234742732781
-0.01179262842452218
0.02059832610600728
-0.07974521736744657
0.027787454531622846
-0.04041843380126592
-0.04859043937968439
-0.09673594961694879
-0.003508823205379881
-0.07294423815613346
-0.031040127146461025
-0.10235313296277206
-0.04262372692841391
-0.07908849640753403
-0.04371039829255804
-0.010720883879111236
-0.11757981295700644
0.004299340782577779
0.0031063941735784556
-0.033997019621694685
-0.06453002022204901
0.007667142942201152
-0.07595106653897898
-0.10958713539320991
0.037112937961048836
-0.05310542541088835
0.016099111667677052
-0.0781054662838311
-0.11971433145394744
-0.08135900089212297
-0.030590318843876675
-0.20720140956010427
-0.11495728814504236
-0.1552061670140329
-0.05020917898996809
-0.06366940283701211
-0.175735205738133
-0.11126252120404378
-0.1413714383022848
-0.009655435615777766
-0.1308973063133776
-0.15087411448402704
-0.15697840644512356
-0.12574967509256987
-0.11686103192279541
-0.20436010928233211
-0.18526402292561708
-0.20598045185002595
-0.1891711704334757
-0.2555395973697083
-0.14939795969748626
-0.22077198411906288
-0.2133441289002209
-0.2896892494348607
-0.3109521271094522
-0.21323005104679685
-0.19430244501314595
-0.24916592272977145
-0.2674758185949215
-0.29440289499898276
-0.3914105716874312
-0.32651163974406533
-0.318707553083607
-0.29773293053875927
-0.2957900565160564
-0.30313099754363004
-0.2734856372256016
-0.3198435207139751
-0.3050807149327784
-0.3178322294710944
-0.483341210793701
-0.40384718793104185
-0.4860811400057577
-0.4435519121538067
-0.36741894274449277
-0.36243170894735904
-0.3559878489531418
-0.3798390780685543
-0.4763153780486654
-0.35468606370575767
-0.42532810431436174
-0.49861807306700456
-0.4998669064916321
-0.53950816975606
-0.5214132683558965
-0.566168266119711
-0.5491901352914264
-0.5462801615307503
-0.5036099928941885
-0.5766930298101777
-0.5931731821553765
-0.6739590422094655
-0.6432051178820836
-0.7546414736083229
-0.5922151424361097
-0.7604641459852779
-0.6996630489454656
-0.6582910589859016
-0.6585282975446899
-0.6459130842542454
-0.6823646919537227
-0.7063193617466851
-0.7492204718708114
-0.7990849634527144
-0.7557017953561858
-0.7950377590254415
-0.8689711686342388
-0.7971175801137772
-0.8420418126586622
-0.7563113372823466
-0.8243503503172229
-0.8704940598939989
-0.7702181346962623
-0.8563441595164176
-0.8488234026439214
-0.9397634418058335
-0.927984664156611
-0.9901983980703332
-0.8705360825165191
-0.8996026480519355
-0.9377631419085979
-1.0521789381687054
-1.0051669970291734
-1.042845587592818
-0.9977816160190295
-1.135162660430162
-1.0236246800866051
-1.0789562654291502
-1.0732261381183934
-1.0837791874935485
-1.0596584263265587
-1.0325571109453175
-1.1237525867065168
-1.1554868247586123
-1.1021765656856168
-1.1623734816624156
-1.231244684954514
-1.159462360991316
-1.1962268853063789
-1.2329352061452532
-1.2247870589321102
-1.1881494245407007
-1.310155802786507
-1.1836577265395671
-1.226494745344517
-1.257717126013327
-1.2055168042442226
-1.2867172675928944
-1.3301384750363705
-1.261087255894808
-1.3255730704858077
-1.3086189185915706
-1.324533462703726
-1.36980058371516
-1.3660813599785073
-1.3166050859068412
-1.341812965175562
-1.2664181775764924
-1.3281244015958544
-1.2771160070506349
-1.4092036348115988
-1.3649779720812227
-1.3792643636489246
-1.4718687341182528
-1.4768278314594465
-1.460125832640859
-1.3974419205261086
-1.422622997055338
-1.4151756381963077
-1.4681777506071902
-1.436370968356163
-1.5097855546992927
-1.4820582124308552
-1.5287207940242036
-1.4195366101444875
-1.5471743292733686
-1.4476334244930542
-1.4459195518970003
-1.4498212829776518
-1.6095640172955075
-1.5336393970030902
-1.4907525497052538
-1.465967629693687
-1.50065923879163
-1.5354934660954056
-1.5699099499391873
-1.5688207826984546
-1.4052449547355526
-1.6305586343369802
-1.4717671819878366
-1.4438547603373983
-1.4586568124799455
-1.5566729649506101
-1.5350252209460191
-1.5520557764078826
-1.4684031708492336
-1.4838924825675421
-1.561212895531343
-1.47399632319775
-1.5177515019105998
-1.4246288523271664
-1.4434549804786616
-1.4181545938568292
-1.3313841479010708
-1.4975084174621522
-1.495097885990393
-1.4362134850318828
-1.4298099426463737
-1.498010498138075
-1.4814740058047744
-1.4958897995566507
-1.414623890266804
-1.4666497304643606
-1.385981452550213
-1.3711719270492422
-1.3370009562285377
-1.4000063978682644
-1.400786782220693
-1.4112902150436286
-1.2911714957022913
-1.4075725889187782
-1.298784389816411
-1.3860787580219616
-1.2192913454112504
-1.329652534215235
-1.394412335235305
-1.2320335299330385
-1.296040082224862
-1.2768112703537329
-1.2821818672115133
-1.2586561042018185
-1.3624961128843638
-1.3250635816067229
-1.1880424026961836
-1.2672074761692413
-1.1390885335799377
-1.2482653746293473
-1.1495077317010869
-1.1825552396392351
-1.2114831520694684
-1.1260120224782448
-1.1100383167383536
-1.0698637064047773
-1.212154662346615
-1.1086312983502602
-1.0106506766735293
-1.08456913839492
-1.0210678538944364
-1.1026266523192443
-1.0126564110913103
-1.0535582814735587
-0.9747997081403582
-1.0369569282814257
-0.9506343757962241
-0.9655630025595954
-0.988675475675883
-0.9246323705051883
-0.9142000399028162
-0.880306287607306
-0.7585199716541392
-0.885803428727238
-0.7512161321035079
-0.815569592367874
-0.8689893046444898
-0.8501741585936687
-0.8315399954597023
-0.7433646447074437
-0.747456382851526
-0.6999443783625252
-0.7040855554241457
-0.7498109904860578
-0.7518408506593474
-0.5734457701804578
-0.6576670276948667
-0.6819891102656572
-0.6655273765897569
-0.6349182548196276
-0.6045150177349434
-0.5974652468687681
-0.5245625794142637
-0.5612022209732904
-0.5219573186297372
-0.4415270908987038
-0.50313072179456
-0.4686582613447884
-0.3440589227029278
-0.45369660835175823
-0.44837009822222956
-0.43558020470855124
-0.37357817242103764
-0.3295902936726858
-0.36110740781495965
-0.3658969956740846
-0.2863984762307041
-0.25789393081886103
-0.2838816131006904
-0.23851191069329897
-0.16347448604430642
-0.2920906484952763
-0.19341885766200623
-0.18629281161711547
-0.23333164264670309
-0.07980946237208879
-0.17435556663962568
-0.09622093046517011
-0.10011312295531946
-0.08951116486307471
-0.049664401484172005
0.05124851131489795
0.0006369387767751825
0.011630539951163754
0.008970826562866296
0.06034683322748023
0.1522361112960452
0.11494600985515552
-0.010231210209927857
0.09092344530066065
0.06701395044832589
0.21914595621170846
0.20377894221793336
0.18488101529984485
0.0925870206630658
0.1935272768094468
0.1516901796158285
0.17558085961479578
0.32302768304122126
0.26316145472233343
0.31814200217329475
0.28377491915528674
0.3095920624586262
0.245444461170128
0.38841899023687126
0.33309428888480896
0.39112836725522127
0.2852120901057728
0.38001716214334263
0.4218970077705382
0.4457448026113838
0.4014329180430134
0.36821533566024855
0.4962863240518898
0.4541925781284837
0.5024594130061542
0.4528188351965153
0.5445418775179667
0.488704449593169
0.5456023472595438
0.5084563501900659
0.5929200429746103
0.5482567925813979
0.643090492654433
0.6371885284605923
0.5769992164097372
0.6277305506104174
0.6646859563164867
0.6375302929167801
0.7221888865141054
0.6391153157193723
0.7089057161637935
0.635218940016837
0.6275696545232788
0.6445220615897935
0.6568299150018563
0.7195115546287115
0.7051569815358214
0.7442325059140644
0.8105720698624965
0.7862316259385542
0.766608348197714
0.8309231777856133
0.7376646450699857
0.7604604882542472
0.8654249988067577
0.8898364114273185
0.8022663754948715
0.8935292756064893
0.8337644400793313
0.7819065528205972
0.8170158618034395
0.8417585970550452
0.8862648201633356
0.848327181897004
0.9233471520185301
0.890017069786581
0.9066792251045904
0.9001261568559927
0.9405353555745883
0.9270660387001609
0.9108262709729179
0.9159009426678114
0.9950783734260823
0.9254381908760425
0.9357583562976567
0.9444932835410651
0.9642390603814366
0.9644491330034586
1.007215676346344
1.0012364665462559
1.0227098827165881
1.0017866555431536
0.9442578454076618
1.0717389769471546
0.9845649134583596
1.072568893371631
0.9181682883167592
1.0055286603169948
1.0453452301648427
0.9986864939980169
0.969378015190588
0.960101184713809
0.9672669214189917
1.0355081263649986
1.036357191342013
1.0912256842003123
0.9745456663558412
1.0675531450193578
1.1075390455426577
1.0791413898657203
1.0623620296737792
1.046201272434133
1.1502699810399533
1.107841054537999
1.0967056284774326
1.1621647561917552
1.0591841601727325
1.126484115031813
1.0576513717138754
1.0709182474699563
1.0477165146912635
1.0353951548922813
1.02975948990824
1.1037418200338418
1.084688233447344
1.0785374517060018
1.1192954469378236
1.1505471437211814
1.1386588642179383
1.0932883017646533
1.1047017833171096
1.1193392495186012
1.0821448554155628
1.1015643667464525
1.0695792170774412
1.1980453452458122
1.0800961275408931
1.0797839143154595
1.0717930900037977
1.0486635188383078
1.1486833192227706
1.065377879375157
1.031430792393922
1.0942151057803782
1.0305626027881685
1.1051599784346904
1.0235852751579744
1.182822092385156
1.1319093595628087
1.1293193862090252
1.1225590620871237
1.100367041334944
1.1265499055355492
1.1537414474634757
1.125306175208143
1.0846078065884872
1.0469529820678523
1.0845288058339517
1.0524322105793562
1.0529032468411141
1.1266761806924324
1.1109839711800142
1.115327885498782
1.0234922672265494
1.0026931833177706
1.0554251109634456
0.9967980923913359
1.1312708195307042
1.0303265795507408
1.0879345566054464
1.1516706117064315
1.0639513756591927
1.071079385452347
1.1246128808070668
1.0621934362408485
1.1040564641454054
1.0904654667572382
1.133653879920282
1.0451311862265011
1.0530967635561075
1.0568948884598475
1.1273487865544531
1.0572799258646939
0.9890831696918907
1.0836801276699795
1.011816370588539
1.0136974604966074
1.0988016973410646
1.0729685715517543
1.079092364523588
1.0822587088057256
1.109604494007673
1.1243473234676304
1.089870923113886
1.0200631676600913
1.1473375678262772
1.1250199722506353
1.0679396980715896
1.0547975760247774
1.0500283231291496
0.9814891867400244
1.0931805925841214
1.020661406172198
1.0393900300390848
1.0441558025015416
0.9591165602619476
1.0621042412780488
1.0161552759964287
1.0254370433600577
1.003473805852241
0.9532994339193566
0.9537403249867211
1.0805833243982874
1.0074889333315709
0.9791431788601404
0.9815404467787907
1.0358404910461902
0.9930584740947563
0.9726568098933338
0.9469174726412621
1.0703860014145818
0.9340646069102398
1.0220377507742517
0.9571068458885409
1.0787678099683775
1.0449614647326357
0.9299920314562794
1.0200848506831577
0.8978073495649445
0.9782638602612127
0.922537554956127
0.9651365512476532
0.9366927422982384
0.8803703288400121
0.8362225088061744
0.9236835765526336
1.0005631422624877
0.9895545687617103
0.9317752429293606
0.9166553172780159
0.898755839448865
0.8272826391197684
0.9322261720035636
0.9318830814436435
0.9072799192965764
0.8664186624434617
0.8434183146651749
0.8138815342067831
0.8682463219926522
0.8668195148570231
0.865384708936949
0.9082573898554422
0.8254490580179755
0.7147388481492621
0.797220052826199
0.8393082371294559
0.8465235416894835
0.7734774742563149
0.798264772930497
0.8478543538977307
0.7911322494022522
0.7889982975033508
0.803831342770668
0.7953755234556913
0.7794514849592943
0.8243918538119674
0.7279110068925523
0.6871794304708752
0.6880940860281844
0.7014988758645311
0.7848481628345806
0.6813103704943154
0.6470217462831674
0.6741823393919283
0.7003771246904883
0.7474603565765536
0.7029694465345209
0.7052274888548782
0.7166534740450534
0.6967805665447826
0.575880427169895
0.7181884528464305
0.6966937948116954
0.5815743508167899
0.6044794250787786
0.6428013169297666
0.6740356289678704
0.6594212641498394
0.583143026752646
0.5733497793938078
0.5682403457144023
0.5208681664153311
0.5476513169571576
0.5666701410829582
0.5216722592464389
0.5037775526601074
0.5061702593022197
0.5468134344610842
0.5214755179838657
0.401011352393063
0.5047101270812665
0.4110035889054899
0.46941405312727996
0.44052154053683645
0.5158182725970508
0.48891642336575647
0.4372069832058844
0.3688356617922904
0.4439202586938402
0.40755499158709235
0.4021259614180076
0.3620381564237337
0.2863451939692858
0.3294195651465468
0.3578040818643507
0.28703500415197003
0.3254966113807232
0.37260667215631227
0.32840982097035665
0.24748524257470758
0.385903046158469
0.33964040189178313
0.3297726399810965
0.24224188631904625
0.22488714007053187
0.27472617313867836
0.29850405994292206
0.28360444882432423
0.25195596125277514
0.15951073040178665
0.2725360834569477
0.16287002076406773
0.16810554000865993
0.1409741316861295
0.20820235004179716
0.15284530080493255
0.21049823512085597
0.10063822659825739
0.1717478454759469
0.01636793016497398
0.1029827687586185
0.2650611637838847
0.0845895182760321
0.028051143390710284
0.15673295891416225
0.09549663208999803
0.08333156509199457
0.10360941912228977
0.08436621067046345
0.12644213769853901
0.08491977187770411
0.06318717881443017
0.057969836888892776
0.1484625381428295
-0.028733871300264294
-0.000633000742088774
-0.04999295025915443
0.06471263049759733
-0.004547826541046612
-0.061275372215728464
-0.04557682895187643
-0.07495944340884034
-0.09976464914582835
-0.05025892648011354
-0.022458832653591956
-0.07408416995822022
-0.029079832421611728
-0.08601938894853108
-0.127763593896762
-0.012968874402575062
-0.08646879914004219
-0.03126376875696524
-0.029873459951513755
-0.1376701305794933
-0.15475120904906042
-0.09739733208168548
-0.058328759688673376
-0.01717389951592728
-0.08952916314733092
-0.12921788597989406
-0.10918185617190394
-0.1753306462587989
-0.12377776599669
-0.1469815669699694
-0.1625375564246559
-0.2558446163926034
-0.16910586497932129
-0.21484024991657988
-0.21709344511693007
-0.1309536658098202
-0.17344770831585413
-0.19579730830076703
-0.16227119467442644
-0.15393072118264678
-0.20947069610179564
-0.15825791100068776
-0.07634486331502056
-0.19948079341114086
-0.1782798919631198
-0.14947133847504973
-0.1478085511185611
-0.17555480244680544
-0.15912805636184307
-0.24661350340535754
-0.10541694921237472
-0.108711682323795
-0.1185086081418705
-0.1272599468737864
-0.2483382257028748
-0.259309544141421
-0.18036990169464004
-0.15078252522116187
-0.21015911583788957
-0.18106895004250512
-0.17451581249119058
-0.16454182781642446
-0.242418859494579
-0.12322811753717584
-0.2070136604060821
-0.2122071677071366
-0.20345538949609257
-0.18916097207684918
-0.1606209166666199
-0.14476255538940785
-0.24871667590306984
-0.19993462519709776
-0.18957660536063634
-0.16937172675687817
-0.22391028311095373
-0.1323041984772253
-0.1881053376670389
-0.2121355062269821
-0.2528441818651644
-0.2063125486931915
-0.2143241677361683
-0.16498890128581525
-0.1937253981669857
-0.1689489046100786
-0.23111698827306779
-0.20667417419587653
-0.17327988178970333
-0.15899313279114202
-0.24498354187609442
-0.18013453926055004
-0.07038257160820309
-0.143712684895031
-0.18580061713756438
-0.14212488607340443
-0.10371434708281999
-0.16995199284886067
-0.08004273849529055
-0.21730346946908516
-0.0720802489512599
-0.12317668964765013
-0.16305520829383452
-0.10005730556307357
-0.19431855534880155
-0.11731412653111908
-0.0978134522732908
-0.08548131248212
-0.12233939173735721
-0.15919030915987337
-0.19177704248234845
-0.17152638215474614
-0.13357206569482838
0.007961144250270807
-0.05683419546888076
-0.06879131556182344
-0.09782799773280292
-0.14313895519373768
-0.09674886359920286
-0.052313266654381775
-0.08392171019157398
-0.09096130429048288
0.0016173333128025463
-0.04535118853058313
-0.025878975323957477
-0.1434648648547847
-0.1633736878775341
-0.08394175346669512
-0.11081095537970016
-0.030821252361919994
-0.009063459817813473
-0.01252135811136939
-0.011704388479015324
-0.052992881856477395
0.06409367703914848
-0.09809153478366128
-0.02729929047300426
-0.022503074699834764
0.01391319028000474
-0.12344367342444626
0.013400085343000162
-0.0583300772423757
0.07897383761777321
-0.05711607268937482
-0.002132342978725811
-0.16740712707027922
0.06195614587973744
0.0037068302156750763
-0.04219158180394171
-0.07944360375692595
-0.013361685389387652
-0.09455141254251498
-0.023214266730654923
-0.04637845590103474
-0.0462686924997834
-0.010548785696427691
-0.11302156860987049
-0.025577895136358008
-0.024052630058835248
-0.07256274696984558
-0.05926980345205835
0.0645319045942826
-0.0974188805932982
-0.10880255099629452
-0.11881935350324371
0.039663754444407937
-0.07334444643821342
-0.004688290945772264
-0.1078633374699724
-0.050119876995517766
-0.05139174036912667
-0.06348891691259173
-0.0923147969694083
-0.15495760765314132
-0.18784156483808215
-0.04799181770233123
-0.137775667176929
-0.012359190563182354
-0.07610441029478851
-0.17032342843741533
-0.1277466184974293
-0.16404623592975012
-0.21857820241204437
-0.20665089067411768
-0.1194429619254439
-0.1543434856587582
-0.24166915560487287
-0.12228361971501539
-0.24751158838928777
-0.12373132250495243
-0.21988942178729143
-0.22654472527897426
-0.2221139626716748
-0.33951504230964147
-0.28886258952874666
-0.21018372383218498
-0.19044573758918137
-0.27807507082514293
-0.3730454297260421
-0.3075807804255263
-0.26448994297124373
-0.21878592284519688
-0.3415842106787915
-0.2883694299849436
-0.4296732464722848
-0.2879695730571467
-0.34643624691036756
-0.29584652343875073
-0.35542686086595116
-0.3956559288767211
-0.4100432862707713
-0.3779357027678156
-0.3890633924834644
-0.3623094768868763
-0.4105852020918307
-0.40499791332684343
-0.42458681043897945
-0.43895541155388434
-0.43383114724400684
-0.44014919303076355
-0.3354396831325329
-0.38277517711459785
-0.46629307621141514
-0.5311496558722317
-0.5398660157656682
-0.5157096695408669
-0.5221685015651026
-0.5412205960938978
-0.5743778035220632
-0.5551235069087538
-0.5908547810842697
-0.6656880647468847
-0.6154008362958723
-0.6583645329368184
-0.632018158420341
-0.7279516591914275
-0.6648912574768886
-0.7269475849687728
-0.6223627672844759
-0.717247838556483
-0.7027758708217489
-0.7160920715472434
-0.7263582949990295
-0.8508724514761932
-0.8558277094180408
-0.806786161233736
-0.7595589553399762
-0.8151153520585687
-0.7766337166817908
-0.8396356466748317
-0.7794529640842212
-0.8032105584383161
-0.868100500233382
-0.8519320766701013
-0.8845270308361439
-0.9647498221633993
-0.9667467080390967
-0.8943539097190388
-0.9820287259320366
-0.9979532345541257
-1.0175360411408318
-0.9928227609954898
-1.0521322859348066
-1.0274188531719821
-0.9930371673420086
-1.146788138085458
-1.0154328273546185
-1.1147962345986806
-1.1631837587002025
-1.0569162600151416
-1.0556799220184392
-1.10725624917379
-1.121967485082041
-1.174842084128794
-1.0723368541574325
-1.1128465482221483
-1.2047427597688243
-1.2146404085031144
-1.2039461387756483
-1.166467572406154
-1.2456828288069903
-1.1955591469579536
-1.2138610587832581
-1.1281312205207608
-1.201983062126142
-1.218645302575742
-1.4319175737128533
-1.26059142705679
-1.2285750094906005
-1.346096527020625
-1.2934969032965022
-1.3351878135677693
-1.3091176191865417
-1.2971497716324025
-1.3184387639276323
-1.4702711766495866
-1.3152722091630733
-1.379399986816466
-1.3695458146694475
-1.3209796118701709
-1.4852529766977496
-1.4102744940721186
-1.2903361150646613
-1.4960335486307514
-1.3953658597142273
-1.3396781384501295
-1.483800459308204
-1.5550894792653647
-1.3662131593239542
-1.4272380409118632
-1.4760113518076599
-1.5417063792109793
-1.464795755201517
-1.4027277209901527
-1.5039707432724134
-1.414558713987161
-1.3998093349302265
-1.4845139112959778
-1.4895882418242319
-1.479145119385484
-1.531888975177333
-1.4909116197972214
-1.4840349512695745
-1.5833338040484886
-1.5144243419654853
-1.4966064931242185
-1.4657064009579617
-1.4862254481655317
-1.4947813454399992
-1.5626468353132141
-1.5956385426825925
-1.4341137455649078
-1.4914761998570707
-1.4649279168645823
-1.4556845999540031
-1.5223796595612284
-1.4334419049421692
-1.5092090212429137
-1.5153938879839859
-1.4484095492461955
-1.4795118367306344
-1.5369027743099961
-1.4595279039405096
-1.4366249621115772
-1.4963843520147173
-1.4839304457055738
-1.542001246396762
-1.4608014698816574
-1.3804295090148568
-1.5088756374468955
-1.5158210508357053
-1.4330558528800665
-1.4446858066653845
-1.4048010752847278
-1.4610588701365959
-1.3796356189241654
-1.3675288116961017
-1.3687235080488669
-1.405282114193852
-1.409837383945582
-1.316577637628098
-1.4421647912989846
-1.3366368148527032
-1.3865375586917656
-1.356953487098483
-1.315070958921201
-1.3049737029269495
-1.256533178505036
-1.275132136535385
-1.3725391272416596
-1.237839712041772
-1.1286574252560275
-1.2673590467341895
-1.2264705653474244
-1.19878631892589
-1.2274077810387392
-1.2476534477844543
-1.2239852899231158
-1.314322190030497
-1.155153272350219
-1.105843574098022
-1.1186937626444062
-1.0494268668479838
-1.120330224333663
-1.1540086067819388
-1.062835862088057
-1.145450136014453
-1.084970197741991
-1.1135451574160742
-0.9846928408130498
-1.0755501843474846
-1.0407118038451704
-0.9939027373969147
-1.053951808315477
-0.9523368250997725
-0.9240237252040936
-0.8718935030109146
-0.9628278186483564
-0.8977284325786543
-0.8522936204724803
-0.8432513314785721
-0.8239661156259037
-0.8296801566121749
-0.806232375121386
-0.7629219864399659
-0.832393769001337
-0.7416801661921861
-0.7075374847745816
-0.7969623485677042
-0.8176303044551454
-0.6646075413563458
-0.5949099985186689
-0.6921150456642264
-0.6746337173575674
-0.6072907053830076
-0.638816359481627
-0.5686230071640491
-0.5820885525484693
-0.5378491877389393
-0.5441149842949206
-0.538804898831012
-0.585209834343922
-0.5823228155285591
-0.48522619754950125
-0.4503758974655643
-0.47919629449450146
-0.3837450329723108
-0.4048203495493418
-0.4323632488679246
-0.3109684283821719
-0.34258309953396415
-0.34616235120188654
-0.36833667600536635
-0.288246473564398
-0.23400276441312606
-0.29506282638644443
-0.23947175504991575
-0.17296256735294982
-0.1950100961256326
-0.27496750767869776
-0.19390277185683719
-0.13780053599122438
-0.2435675067455572
-0.14024169166662884
-0.04519426814923032
-0.09948359999605258
-0.08004570075276965
-0.04525259914307388
-0.016328803211561316
-0.011227684347173757
-0.03781727510220846
0.005624179362472938
-0.004702712784382786
0.09748693932685504
0.056723280814693744
0.11467025354904298
0.07061937052093277
0.16252954403563713
0.2318980313799104
0.2199097827311953
0.08269093859790787
0.14851558340341864
0.20435402345218898
0.13546517169379946
0.20633423658356978
0.13505165858346518
0.19657903030711965
0.2507221446932744
0.2439851091021708
0.28144143740773386
0.2862009042261504
0.36551972975163655
0.28091228178290817
0.3261924184644309
0.4487757689039027
0.40590785657607786
0.34642556548645387
0.39748304497676107
0.4621673880407536
0.3827988117400144
0.47618863499280456
0.4798242754188373
0.5110251154121395
0.5230989035888363
0.5399482025395939
0.5681448712569357
0.5897842668102173
0.5332069531400389
0.5646050721012448
0.5500410976801333
0.6433925626345555
0.7025671213140546
0.5080117647880993
0.637357209312778
0.6363326259713108
0.697290351782957
0.5925091303266576
0.8131291312099486
0.7263574781864149
0.6405413175793591
0.6642457052618583
0.7365757680464409
0.7403530181078226
0.6918128439406049
0.8044780677960581
0.7242456449283639
0.8388932314578916
0.7590837266927186
0.8385886946315391
0.7772857501809685
0.8759208023709698
0.923211202615089
0.7708888610838629
0.8349090079765619
0.8089587835756958
0.8273173468464552
0.7401800930767517
0.7918055960892185
0.906878308909786
0.9105736814259723
0.9104016397187507
0.8870580171300212
0.8815855980057495
1.0177294042356941
0.9326648082752773
0.9422815056289415
0.906476222107923
0.9468511727299925
0.8954221675625892
0.8518166699477524
0.9085865163863007
0.9770876715444714
0.9076395387384943
0.8436073071769179
0.909230978838402
0.993583016436514
0.8969199907277822
0.9728328578994941
0.9739240887408184
0.9985855679404936
1.0324149834438976
0.9001000777727539
0.9919627990872621
0.9346810553200415
0.9246823185809494
1.048877207826511
1.0342761783204075
1.0783031014055569
1.059669897509408
1.05976786862627
1.0274174986199267
0.9474721563227678
1.1160347533359258
1.0827905762444994
1.0506241178331137
1.1058194829898318
1.1183551424282743
1.0048113638898706
1.0284077429961227
1.041612049792359
1.1419227827888734
1.0022190465900196
0.9637440569075554
1.001562884239109
1.1726144066142081
1.0735335277776459
1.034972592141722
1.0470525692097057
1.0825825342868713
1.148629258584026
1.1516751600198558
1.0895188771933828
1.104781341023125
1.0665537287102769
1.0512066662472102
1.0308148992780002
1.0707093188076922
1.0539999420354764
1.1742985309560054
1.1244654211966596
1.117835926475404
1.0920155894014316
1.135105359501396
1.0904914510619854
1.090743398458788
1.042686166071744
1.0983328492538333
1.033174743848671
1.1703022272113095
1.1678014816904967
1.1136175158176946
1.1121535334330588
1.130815336384373
1.1043489318964526
1.1559551595451851
1.1395293099580488
1.0565728239881373
1.0533330634465876
1.1660888330009356
1.1419465436583036
1.0790306240024699
1.1659076420325116
1.0934757661634629
1.0401199662975307
1.0431154021095839
1.0357920518923904
1.0905655078539718
1.0926258768828154
1.1271630505406167
1.0973478963553156
1.0809332969766914
1.1245811322957606
1.0892876115231818
1.124696324714803
1.1554528635257788
1.103061458726554
1.0587370701590344
1.0518922169075056
1.0331535591295116
1.020856399159802
1.0454402256688096
1.1014684102811594
1.0556168809254274
1.0679844909541671
1.1352123393926326
1.087404987969887
1.0554238540214353
1.0392357507299212
1.1274139289198508
1.1073884552933686
1.0624360634694843
1.0437752579016903
0.990181949771585
1.0916569152124025
1.0641004140168486
1.0304343767594513
1.0371827587632922
1.1125700722156615
1.0028133633221303
1.0258191033659898
1.0901501174377726
1.1140784852760217
1.0206044214964545
1.114991413519254
1.0649593697664745
1.1428442067334903
1.0115326694286064
1.0642074055121076
1.040475696022091
0.9942727451516771
1.0951656835404175
1.041319819229608
1.0785270238741997
1.0138022171690766
1.063750111528104
1.006183771260277
1.0660413105432076
1.027655171412081
0.8858567416296212
1.0450800197513965
0.9337431340142088
0.8976141173400021
1.0173375986277928
1.0924666643931729
1.0040756034135623
0.9878540247172874
1.003821872466095
1.0522551816657661
0.993123647686439
0.9907790863120961
0.9551572433490392
0.9722658250394746
0.9577261906648366
1.0982924561912488
0.9382240621373354
0.9182500757289322
0.9080292492051262
0.8748252438771406
0.9985023140866136
1.0144001614872398
0.9713602393726912
0.9267570989759621
0.8673504091466173
0.89395383154669
0.8607583544581732
0.9038894455527524
0.8416199177383453
0.9506603131174935
0.8707217840952349
0.9284266575840165
0.8851995610430624
0.8857661198582187
0.8141967695900412
0.9028531989476628
0.9181591473454602
0.8788109173924439
0.8658727948214463
0.7383035091202073
0.7773414334917322
0.8498580463765605
0.8917319193359722
0.8053705370293109
0.9082621499356882
0.8831796215952428
0.8945157403072391
0.6816315463754256
0.731337917317978
0.8284419174327954
0.8124051252872362
0.8228336998747922
0.73513370682544
0.8122563164249463
0.781636265080272
0.801836572588104
0.7670883381934442
0.6038002901730413
0.6435373067907412
0.6934613643348826
0.6930064427052635
0.7118101378865497
0.7320969078672507
0.6663780183235032
0.6857716510795185
0.6481165609466067
0.7119367580988631
0.5989607959128327
0.6715533279880911
0.696947532336112
0.6465993140224184
0.6747802399304066
0.6590763258563244
0.6192836751943526
0.6068425092873361
0.5803863284093059
0.6656999582192159
0.6456529526148767
0.6056667289089299
0.5032320138692556
0.6504087640166899
0.42120142563228735
0.4925426345016613
0.5435475467376041
0.51116012776666
0.550244450670989
0.5051220474947935
0.5011626088921881
0.4845269707209656
0.5041250233669644
0.5075687268654377
0.5017819803522106
0.48426915466124365
0.48446649429503463
0.3989223275970824
0.4154905560266387
0.45493480860201885
0.37313524601615033
0.40660424535104084
0.33761880458200894
0.3264789003592293
0.3828547239274909
0.3191278705914551
0.3289817916512256
0.2731395608052046
0.33452900602860275
0.3141037520947938
0.3424236597134493
0.31834915688733145
0.33089336592002627
0.2888913094289183
0.32504188993822836
0.3272517145609751
0.23507748214968593
0.295607224197876
0.22114360045383583
0.1915538417180742
0.2671586579648724
0.2525229830731094
0.18945871534513642
0.14824876729049358
0.2866125040036755
0.22688964809232517
0.17009224044450627
0.12598717903178291
0.2470678410946077
0.20418055288209608
0.14384178665739056
0.1364151573317173
0.1130646623385248
0.05272659563540351
0.0728866230042366
0.013983813153081573
0.0068801057406932264
0.1785100138797826
0.13452794607041713
0.04258599124034549
0.04182585855824871
0.05666937842566372
0.034944426766323484
0.06094752621778636
0.014106542561390732
-0.013246384600677723
0.029665456175388315
-0.023977938206620832
0.02155673819677822
0.056994636415620976
0.05364298975524795
0.01870719485266902
-0.002834726869152768
-0.11618065703914067
0.0032889752959328715
-0.036967648625516415
-0.10740026474440116
0.009906268715218235
-0.014375442997529873
-0.04870070853162766
-0.145930271589928
-0.04650105996048377
-0.03591807139020344
-0.04697745036037614
-0.10833047308986801
-0.1489669952342452
-0.07468692547630981
-0.03554465574189232
-0.19416406611779563
-0.03553003518328045
-0.10880608516117583
-0.08358066284870705
-0.16881291752232777
-0.20825459563518656
-0.11312821231251236
-0.13291453293201108
-0.17068924974487512
-0.17352456729023968
-0.19043058997432452
-0.057982439362531155
-0.1737098722729522
-0.12007173236609817
-0.19641505549625404
-0.10502291179937032
-0.1548191697157952
-0.21175948755571808
-0.10665159021874554
-0.22749494099930187
-0.11368529851503208
-0.10489632638709856
-0.18627906980129866
-0.09610478195148556
-0.09271006159249426
-0.25154866084717215
-0.17387049339561497
-0.2377192542857353
-0.1502563139858071
-0.10642961222611888
-0.13898800922309887
-0.10662458820326369
-0.1916267798162777
-0.2675294922665312
-0.15403011997090416
-0.27680933428680177
-0.20391108719590476
-0.1442339745010153
-0.25390546617761833
-0.15456633498628047
-0.20744037113475158
-0.15598995285415815
-0.17245844384861503
-0.1784206057211573
-0.21232337315536007
-0.16159569535150406
-0.12212983509139058
-0.1626381836875691
-0.1197595501942312
-0.12769475527752497
-0.23877787415376808
-0.18633909928155443
-0.178827846825788
-0.1764401023810981
-0.18399781526289916
-0.1975741742739443
-0.2599240810064585
-0.22367464600253675
-0.09604014479768426
-0.12095176995330151
-0.17637076375702096
-0.1273687603125273
-0.11359780155783211
-0.13989636822708454
-0.18471816141310815
-0.2540078060768457
-0.15581972311145034
-0.17683221320933953
-0.04473327390921707
-0.17331258511051753
-0.16532602750662015
-0.09255958390428029
-0.10875547027394517
-0.18089219032398232
-0.10791060978815582
-0.1124453040949486
-0.14806977364177556
-0.12000292365890712
-0.08661631994193968
-0.1911768791232694
-0.2268016118678306
-0.12251437796670994
-0.15479809537171108
-0.06981557747491621
-0.19301535330226322
-0.03431596784928709
0.01022378001015918
-0.22159627971687873
-0.16571841401853454
-0.10203667099812912
-0.12161906563308064
-0.13257877110095123
-0.025593930919786526
-0.12637129356528043
-0.18264412673639488
-0.106270156672328
-0.1300141499206001
-0.014759760518255907
-0.02999618797494616
-0.07785244339723302
-0.09587196695533726
-0.10695797258972134
-0.15374806148729014
-0.03168395725942387
-0.07523038304630222
-0.09640305235799022
-0.0816803978952836
-0.04874165441290947
-0.1474306732026885
-0.08523243642510356
-0.06495721595428082
-0.05773352478863405
-0.09230731411571816
-0.026273643176201948
-0.13521066411344412
-0.12042666456815951
-0.0852115904863022
-0.007247295467125929
-0.03985546323413719
-0.1412007465368244
-0.04274324856699965
-0.17315605646133442
-0.04228298016313113
0.04157438989531999
-0.11873963653416346
0.030173108160979456
-0.022093036822749844
-0.029240989620931367
0.00227227174905828
-0.020107985567475572
-0.1214122497609438
-0.10935275416322228
-0.10632361065862102
-0.06472449158678813
-0.013006423812319104
0.023346932990773936
-0.07278424894744503
-0.08616417803852786
-0.016609190377076553
-0.023832843487503433
-0.1099085550184786
-0.088945136875709
-0.1290516310897826
-0.008586422645503536
-0.1519054417511485
-0.1074546003330151
-0.03885139698175683
-0.049529784079567575
-0.17755569011945516
-0.09945546925337474
-0.13844400527815265
-0.11174758267896383
-0.0996773762333289
-0.04459675361491637
-0.07974579066805895
-0.10156046436519854
-0.05057999302693193
-0.12421695123223493
-0.15222287608382362
-0.22937077841139447
-0.12491706345320189
-0.14146076338324093
-0.06610082268474567
-0.1488936163139891
-0.15800196391099527
-0.2394331936454113
-0.2191551801843003
-0.25119428364575147
-0.1684185239874439
-0.17859166300931878
-0.18776811575774857
-0.23860783095039423
-0.21516047788040776
-0.20487786857372262
-0.24502102691699057
-0.3007391213648396
-0.27831167012760755
-0.2578353383818903
-0.23879508209827027
-0.22272803874034286
-0.4041403683889272
-0.2977353950929285
-0.31339532021335426
-0.35005818735373584
-0.3223653298207819
-0.386015767088453
-0.24408686413625755
-0.46292377882051633
-0.38106088463819465
-0.4180540907490705
-0.3428916751349399
-0.3434451113435666
-0.42939547191057237
-0.5046033833999736
-0.41274332337557657
-0.38675989783036946
-0.4476821958802101
-0.44459752783129736
-0.4373765708420461
-0.46644413029333426
-0.539578236762051
-0.5081283790305103
-0.5256630910704057
-0.5615431214912786
-0.43066421524530185
-0.6102429507213828
-0.5903751488971806
-0.5930852605696552
-0.6167168829053864
-0.6284494121053267
-0.6208780186398214
-0.6361719576274837
-0.5540574930576507
-0.7302530305314009
-0.6755588936605241
-0.688068168214411
-0.7375490508795189
-0.6855849937683488
-0.7025993269219384
-0.7709120833231375
-0.654568789004845
-0.7034227281550228
-0.771327005305755
-0.7911796116344598
-0.863436065519347
-0.7820709286371406
-0.7667591687272934
-0.8846799246745373
-0.8404758421107836
-0.9377411063376774
-0.8093826754060913
-0.9008384351160759
-0.987607462779569
-0.9770771354110668
-0.9838577080319675
-0.9543350983998828
-0.9822497398243591
-0.9695600099135278
-0.8924977365056157
-1.062502493171319
-1.0879568485395639
-1.0340513724984624
-0.9478593463236984
-1.0052871288757859
-1.0979314774325593
-1.0379883114252642
-1.1869047364175702
-1.0194612640792322
-1.0944177658995753
-1.1423881085379735
-1.0973635252590705
-1.172334462713146
-1.183217977103342
-1.1976137301238527
-1.1876915764824318
-1.2043207189355185
-1.165235735355497
-1.1779701614960179
-1.173254426979516
-1.18893157252061
-1.280439743751479
-1.337004752898948
-1.2499809688320074
-1.3193930064085362
-1.205701763757601
-1.242087228778559
-1.2101189865000959
-1.3376804487084137
-1.2781839868787968
-1.4396544479686244
-1.355226543567348
-1.35505249320899
-1.3927373626505628
-1.3426973370441826
-1.4172951490286048
-1.3638655636326495
-1.402270214176967
-1.3785276255033956
-1.3392518976093852
-1.4058197340273133
-1.3809668459903144
-1.45182074804576
-1.4619777743785414
-1.3854957424036514
-1.474898284414949
-1.42112367458797
-1.5140446494275057
-1.4362455557870444
-1.5106188347864509
-1.4022392906177645
-1.461674944089304
-1.5984564866096183
-1.4456796666617096
-1.4228128829659492
-1.408252761161326
-1.411406164163914
-1.5909749504045387
-1.4978500371176962
-1.4814626966196804
-1.4613090858813382
-1.527149071835515
-1.5046148620164839
-1.556095310028242
-1.5421921907019756
-1.4475488971306083
-1.5768806926684638
-1.539275672359111
-1.4250027918056678
-1.4661468361945065
-1.4778439211336047
-1.4640469454871625
-1.3897363768917623
-1.5607977907198163
-1.566219950931735
-1.4127411312559506
-1.5147125043116896
-1.4247236080432675
-1.4718811421228897
-1.5687396408143846
-1.4662213088663174
-1.430863412646628
-1.539865783428402
-1.4851788160102328
-1.451401236318961
-1.4430546368715957
-1.4298804009399189
-1.4454427744522336
-1.44375289498985
-1.3759845610094632
-1.3843298061700609
-1.4674281038861345
-1.3919629392203217
-1.423634889950506
-1.4104843746101536
-1.4840452160384485
-1.3279333155523247
-1.3692219454806578
-1.401659387165223
-1.4387431392681636
-1.3948031479756953
-1.3488029650673599
-1.318827274727929
-1.2802590146357502
-1.263449021081179
-1.2464429789748264
-1.317070654479626
-1.2265366385187955
-1.314681757631726
-1.345601121385004
-1.2190125559789493
-1.209982651984944
-1.1913876317663274
-1.2111181898274408
-1.1925260008510474
-1.2004293339471388
-1.249555388789794
-1.125977520251387
-1.2135147602013947
-1.154380262904006
-1.1602649041402282
-1.0554971934752801
-1.1139851082021497
-1.1393256515395593
-1.1712160263573266
-1.0330989810327742
-0.994554083467044
-0.9496801663052612
-1.0415193900708712
-1.027079052529031
-0.9225480933110931
-0.9621868819861362
-0.9482931034318977
-0.9350230034008494
-0.92386262752967
-0.9929433266105232
-0.8646357375241224
-0.8674541566129796
-0.8948019186325764
-0.8656710695696246
-0.8533704454128272
-0.8770172869527708
-0.7596461222991567
-0.7495323965523293
-0.8182563343988062
-0.700011258108801
-0.7611623221837313
-0.7142262444563191
-0.7328088428450473
-0.8070060503457297
-0.6362998019648148
-0.6509237506498722
-0.666599153889909
-0.6558691260372104
-0.5973455071971193
-0.6064068764462782
-0.5806498089575558
-0.5704700823132232
-0.5706866086733421
-0.6080595468675946
-0.4533835278212762
-0.49972142413018794
-0.47267886462088987
-0.44198242444930863
-0.3957806116000499
-0.3713283717410394
-0.36428267018630367
-0.3468619448236928
-0.39045058223624346
-0.36452873923401585
-0.34973686173173935
-0.29964239011374366
-0.2511802768232085
-0.2573705533467646
-0.24125783632114628
-0.29260692834596425
-0.22884488386955115
-0.24526351914603334
-0.1584693765392808
-0.15006404370801307
-0.078508686734394
-0.10731809826953999
-0.09009624846194664
-0.07764491732920116
0.012309331308060986
-0.08299443803131688
-0.05962563708784453
-0.01608645426628711
0.05335748062925006
0.12965607081923414
0.1010477676465252
0.04275812471197571
0.1074602324043456
0.11463286212401569
0.09318797040417065
0.13718301062158442
0.12617699860396053
0.041401996530927715
0.17561604849840956
0.30767286094969604
0.10426743244590173
0.1845066774762013
0.24299906627340054
0.23387806880947776
0.30078519290263217
0.3175588942765436
0.29818481829473076
0.29967471819062347
0.28406754006005086
0.2723805135064546
0.44966538094069375
0.3160842763436079
0.3518946472388203
0.2847094356844337
0.4719020301156706
0.41122098107625554
0.4413986017038353
0.38373417438871926
0.5584876958812015
0.5628708010261204
0.5093782805177158
0.4589912703486723
0.5719709280645443
0.5697440393230198
0.5733394532633164
0.5457805887490574
0.5764161639845004
0.5153347781323677
0.6288690819134017
0.5023310551411584
0.6501272355508338
0.5430057159026545
0.6330226840027418
0.6462128619480381
0.6673884860738867
0.6107361249607454
0.6963361627025387
0.6564287786746213
0.7500927083486423
0.6333175405581295
0.6342931586592616
0.6896983518635994
0.6984514050283103
0.7907692788120594
0.7855065449618338
0.793814226563068
0.6945138581349772
0.7841142565677688
0.7324103719028503
0.83199403218516
0.8459008890792368
0.8569582644128693
0.8269634595407062
0.7740101147908315
0.9150311888456925
0.8060210178152857
0.8435408874848946
0.9337479136845316
0.9623826166766619
0.8679719554259917
0.8337133757593284
0.8585628798445233
0.9074267390701138
0.8513172385453415
0.9190625203832662
0.853055121004209
0.9854026303182549
0.8785215569066531
0.9139012306762593
0.9599486696583978
0.9320115618930266
1.0291849884473225
1.0225932387896304
0.9881586383669428
1.0144737251802478
0.9278580274675556
0.9482233555727605
0.9722210313677039
0.9860574648271269
1.0200053805270477
1.0094792716177987
0.9994312690912468
0.9968469876604451
0.9772287907685154
1.0013974951349807
1.0713690799147404
1.0277121054842289
1.0311917365582286
1.0636766887676097
0.9971735925703002
1.021087787871584
1.0799148498661795
1.0420806748464913
1.054748082847304
1.0694520204203797
1.1231163091923273
1.0727634061784723
1.0849957232462113
1.0958865245492617
1.051151427289284
0.9608806525303162
1.0926959691799638
1.0032265989635187
1.149762386174334
1.0497532222834027
1.0191230232015058
1.111250861814022
1.0988546472298195
1.0364906455949687
1.0645293169090284
1.1241446534634412
1.1012018188108859
1.0542568923792217
1.0180653637143922
1.1148410234656876
1.093776380736347
1.0146854559522815
1.1596118206137196
1.0815987032535894
1.0816020174384424
1.1162657105038138
1.1890537340091574
1.1544009755474074
0.9988072810189137
1.1164602662369616
1.0427752683025258
1.0725578449538642
1.11053159738891
1.0301539036690492
1.1350657592097009
1.0778027447006782
1.0518723034462873
1.1412504701212507
1.0445744885483088
1.1765120789897887
1.0185506255926262
1.0539203678727151
1.115216559689424
1.1572823715124763
1.0861778199600787
1.111287259586793
1.086466654848632
1.0097538408985276
1.026781239890545
1.1182496886493765
1.1070034654745573
1.075217192278226
1.1557900300787818
1.113906682807454
1.086342263209664
1.056135645881085
1.0896371348950564
1.1738401252555077
1.0438901297265353
1.014700776591318
1.1072761120613366
1.0857396982526608
1.1152044786392292
1.1357374822900028
1.0698136828194031
1.1332905819224688
1.0625312022099231
1.0417605071338014
1.1558109781263237
1.0709931626171891
1.0254406704177026
1.1159946399876701
1.1062989648166934
1.0667168563326983
1.0085465040787267
1.0878447142080279
1.1037366863786544
1.033352640426967
1.0002486229319436
1.0733666663813424
1.1747878214341858
0.9366626768292947
1.1033939159699873
1.0710496838284316
1.0428968451905922
1.016259752864259
1.0868493882454293
1.0204902108486413
1.1465972797956459
1.1209306059717343
1.0179708610567988
1.1144712146032338
1.0005116670729104
1.0704612030603358
1.0243962677571055
0.9998377090392051
0.9572887296385065
1.0176174269679077
0.9791965365304159
0.8792425927603437
0.8761213102752905
0.9886964901530616
1.0341443088575628
1.0844286136573682
1.038731163873291
1.0266981491948308
1.0101810763334025
1.0412274885196586
0.9250991526577634
0.9883775867143659
1.1045237100039003
0.9559816202480829
0.9476280546444115
1.0288032729858914
1.0413460038655757
0.913916331492251
0.9805117629495148
0.9975316827167916
0.9614556888611706
0.9655943021713754
1.0009323223869724
0.9096114775778171
1.0176557880178085
1.0145031659319566
0.9030312762020865
0.9853054318633452
0.8963857885722899
0.8591970444239303
0.9272852833298589
0.9211712685679172
0.9631237578262222
0.9097032349771962
0.8363455635529876
0.8673901879640665
0.8705870089114759
0.9200408801794687
0.8407956138730234
0.9173238979053647
0.7970386891837785
0.8667067112115717
0.7843986759609947
0.7766344780729943
0.8707915373723211
0.9012265062189748
0.8338662316563036
0.8133447053810797
0.773391738276427
0.8357859497972601
0.7817506475868801
0.7294818854518014
0.8145934270960287
0.736456021353061
0.7400057846321805
0.7821802646948202
0.8723680721960482
0.721560905886623
0.6969068425624789
0.8034851142199094
0.7653342319281178
0.6943419401203643
0.6855838804269448
0.6981448111660885
0.687986417986799
0.7020871915091892
0.6288760230689738
0.7001240582137374
0.7059460295308345
0.6358992781103662
0.7064946864519496
0.5734325944441718
0.6310206507496653
0.5875113689886846
0.5848976589668544
0.7237991730161846
0.6206024565518506
0.5800889223816829
0.6191170001405234
0.6495379730871494
0.5331565050962528
0.6140217444341012
0.5905107758180222
0.5392622825165183
0.5716037783073558
0.520590754098993
0.6421667703209857
0.5052817796606642
0.48379386635733734
0.5388579334510993
0.48167948685617334
0.5234047003120117
0.5613687268397539
0.4763207004913366
0.42711819164818726
0.42940886905632153
0.5332018206698297
0.4153545488659352
0.4032332168193006
0.3699025503030844
0.43257868966911084
0.4452450520983021
0.570619256301385
0.37962276566600056
0.3946892277637621
0.3707973123884883
0.41776919647804683
0.3286068867386001
0.42957275289028884
0.27236221820396106
0.28153157143195284
0.30541176220663085
0.29098714458797886
0.36010244555333476
0.20473911003991346
0.2935444899840929
0.2769974173145675
0.2259760673071045
0.25797173768191434
0.18525780717757287
0.3201571537317983
0.32970372423081484
0.26740631946653376
0.18113003634966957
0.21345004982903965
0.30229332885848204
0.2107028059604051
0.09929599594615313
0.20078933296245866
0.11036478783114564
0.11902950557136668
0.15083185042192043
0.11713210920325413
0.12907501168056773
0.15989669224547606
0.14759741154021153
0.06488859270867108
0.09290695955353874
0.044234135431350734
0.11034074246826328
0.0090084511857135
0.06654183029259485
0.09202419697550294
0.1046474572865174
-0.004940224241792766
-0.06349915395807233
0.017327044677897807
0.0230902120111706
0.008537142772723667
0.01374665492261104
-0.033712699218144224
-0.04243334617466142
0.05589690941441237
-0.06678814418233942
-0.06183481913686441
-0.07557773391357497
-0.012283044955749545
-0.030275279096180673
0.015822292018729228
-0.09589101110598769
-0.10623518590513195
-0.08538688443311311
-0.16775845134371262
-0.11781329641695841
-0.1453444474388056
-0.1275232194146484
-0.12848840340778012
-0.15641994853363372
-0.1404798990684632
-0.11292486942402677
-0.1813432326467153
-0.09314652911952123
-0.14301669276690512
-0.11555697160419988
-0.09962519686007207
-0.059212233998403446
-0.06673529849701373
-0.19251492085047123
-0.09612127587732165
-0.17346682965517152
-0.09501794624467191
-0.1395378084361416
-0.1422389695554702
-0.1045126502679822
-0.14591484218857095
-0.14013995996165798
-0.1754644944757221
-0.16032724518258026
-0.12088161537380201
-0.1912601413007334
-0.2052424786912168
-0.15631210514655583
-0.2212801048726949
-0.15708577250582897
-0.18022178088888435
-0.16306597177415125
-0.2316715564308219
-0.15243940582466656
-0.2202566637175246
-0.15967421464211234
-0.2377167047525593
-0.1329320060782223
-0.3094872465028052
-0.1825242359375898
-0.15453970951243357
-0.03948997046618841
-0.2000451828699899
-0.2580388433919967
-0.23493723381963588
-0.11455889995673801
-0.20838247148540867
-0.21762124316722084
-0.14060377096691973
-0.1699365940509863
-0.16376345522461438
-0.13763874221032385
-0.19464353571932094
-0.2311225954798364
-0.2660475127484136
-0.1463498793911681
-0.19475435917395
-0.15582108870163858
-0.18794277072427018
-0.17999612148552474
-0.16546814184688005
-0.2061001349289189
-0.23481045167413722
-0.28420247213103444
-0.17239598943384793
-0.2128994210937694
-0.20179271107517463
-0.21476593942331867
-0.21810846527757483
-0.1467921491643614
-0.2065554683812906
-0.051883153620680245
-0.23437677079089264
-0.13741236091841988
-0.18356550040048808
-0.22677647284120342
-0.1891971500062929
-0.1266075104965308
-0.05565014369568402
-0.19661044388964827
-0.10586910315375028
-0.06922573685202076
-0.10007028854672737
-0.19713158017973598
-0.042639733084994746
-0.16859350379217802
-0.04021253464040547
-0.11571981491291851
-0.0778685666633908
-0.12210459503046978
-0.12191064385423733
-0.15059694134962676
-0.06842642946017435
-0.20519256948171508
-0.0658580135294513
-0.17334080557982912
-0.06664021710779122
-0.14405971139025567
-0.08416937982464623
-0.12651750282564447
-0.07076740460661672
-0.15450120079766577
-0.029012753754522502
-0.13467529880295442
-0.16672710031536658
-0.057987205126268045
-0.075430615084545
-0.1421934510602133
-0.08705267359993793
0.02069216321645892
-0.09276688568733607
-0.07174747009703858
-0.07760977671442583
-0.028014328077399245
-0.1287964273822716
-0.07780309028510571
-0.08918010390497122
-0.0035569132117075908
-0.06594618036182305
-0.06853043204408144
0.009445795528605992
0.03737339119700708
0.11276733434633654
0.021082061091708605
-0.0784631977119795
-0.012031275399920834
-0.06526692701665132
-0.014689337190475646
-0.08731365491826994
0.018138255065744194
-0.08649390745054514
-0.017838198137344052
0.018922239858349496
-0.07474633519238574
-0.06594973263203363
-0.100458660585867
-0.10093155333459004
-0.0327000045542062
-0.09606972321994048
-0.05954166931805349
-0.09872792199655231
-0.0007794488312995451
-0.044885442535113854
-0.002885408991050706
-0.09899198397113645
-0.04565952359950651
0.01573830075990948
-0.07435196034568653
-0.09173246987552429
-0.12993825942041737
-0.2111869639418633
-0.10749821612670485
-0.10881921808328009
-0.15336929575292058
-0.1418299312160266
-0.12820440838768088
-0.1699224065970339
-0.1735817482484605
-0.04137673437642449
-0.09596644566644891
-0.09120585790118715
-0.16019325483589986
-0.2650173487157461
-0.13253231835330437
-0.05999167774193054
-0.10729134418197814
-0.10063426302254429
-0.09984822240985541
-0.11856666734284185
-0.13366041006498333
-0.13548740240413176
-0.22463419865103892
-0.12496454125643897
-0.19254936697198202
-0.1792909168057916
-0.22814689215307246
-0.2086325371069016
-0.2656560938557039
-0.22700537417683714
-0.3180237653667623
-0.2514488383480321
-0.2570591485876463
-0.28060459325210024
-0.24035778882689823
-0.2943074207381325
-0.3045139034116037
-0.33389743276168293
-0.30307743722558383
-0.31620645653724727
-0.27721742070240146
-0.31162163491080386
-0.3868891975385108
-0.3275422557628185
-0.4064505441559503
-0.39557509586291467
-0.41819544377760964
-0.4402811897711867
-0.519100091038011
-0.45825326704908276
-0.49932567393738697
-0.4204004295659464
-0.40594830870446585
-0.5685282040129171
-0.5104957385781869
-0.4792342649725338
-0.46346531758849807
-0.5665813894206551
-0.5539955747883284
-0.5272240651321597
-0.6093675557814794
-0.5574131299653348
-0.6012201092486786
-0.5784008128626733
-0.591068535134865
-0.5736637363609153
-0.6593593209851781
-0.683545450242952
-0.6816468669199385
-0.732732408102414
-0.5328307929538456
-0.6545625785114457
-0.6452521538684803
-0.7695541740325532
-0.5912630243198487
-0.7295938363613832
-0.7587326039053287
-0.85025896451859
-0.8313155687471883
-0.779178584166943
-0.7564468878693988
-0.829310096414882
-0.8667638383719019
-0.8557040973066051
-0.8184963990773834
-0.8433085478110974
-0.8918607424095223
-0.8601262764004203
-0.878547853687885
-0.9115622449167403
-0.9466266111150239
-0.858164235159966
-0.855622288071338
-0.9274036677694715
-0.9950901769315467
-1.1113485623909614
-0.9496859373763813
-1.0247906848501602
-1.0192796453218285
-1.0459086926360417
-1.1360753157906915
-1.0906592342541124
-1.0495278872090914
-1.126503631555564
-1.149617486606701
-1.1136290214522633
-1.1597390684608089
-1.1314983531119112
-1.1265634549846717
-1.2024564964875004
-1.1690610190260418
-1.2109735698962285
-1.2420794360489964
-1.2447461247687441
-1.1918299034313975
-1.2266889926071964
-1.2702572593652266
-1.266927309301765
-1.3061694520468847
-1.340519561632889
-1.2358120652247362
-1.3168992418189043
-1.2203711028969018
-1.2487144273734154
-1.345721887549256
-1.3533728734436017
-1.3519265642735214
-1.3372682560743665
-1.3985265011798633
-1.4201709017282655
-1.3475315504207082
-1.384521550253144
-1.4580992901474756
-1.3861256691678625
-1.2811602238783482
-1.3571263125236006
-1.4102556668447745
-1.4719687194506332
-1.4386917034148998
-1.4190897934659414
-1.3464000371335847
-1.4756235898886498
-1.4451442510632215
-1.4484554721139857
-1.479331826106229
-1.4466106530323373
-1.3681256401953272
-1.3928454088587803
-1.5791904425869685
-1.4034807371580937
-1.3940393447430255
-1.4886908390615352
-1.4685263354642424
-1.5773471720224719
-1.4480075879634482
-1.5301646004836313
-1.5472170289986238
-1.5474058325986269
-1.4819715024122502
-1.532415933270561
-1.4108262557939626
-1.468960866610061
-1.4345022679487411
-1.542335191329138
-1.4802392117283303
-1.546478404753519
-1.534443069676215
-1.4268395648490895
-1.4058959329235023
-1.4583062241378553
-1.5085744969316635
-1.415670520434466
-1.4427076359157422
-1.488219055642999
-1.5474545265655055
-1.4216702706411748
-1.5262137024450486
-1.516325368592609
-1.4264334756520123
-1.5311672111948034
-1.4889967315358452
-1.5068598780040359
-1.410187545590896
-1.4778736925229987
-1.4176547600514167
-1.5025926433387609
-1.3570629559903118
-1.4112557588746484
-1.3877179715316585
-1.3182553414159965
-1.356059328671945
-1.3153588314052784
-1.2873439372840725
-1.3368252416996265
-1.408090686142193
-1.3766116620968079
-1.3245978886850804
-1.3607791361578678
-1.3720801126747457
-1.3564619790317363
-1.3159670025866643
-1.3217546307185757
-1.2396308120623405
-1.2534779270804277
-1.2700517408772043
-1.1291443403876475
-1.1254218670484657
-1.2597112323543134
-1.2288069023927526
-1.299123042423908
-1.135563658733056
-1.1930464341645841
-1.1310977157015556
-1.2406503466199588
-1.1624498066973699
-1.102343296162079
-1.1319423723967112
-1.116848610016739
-1.0781718317899025
-1.0152521352407078
-1.06856341115076
-1.1065781967947583
-1.0651916627561713
-1.0606027374707063
-0.9856485056503592
-0.9937892965462325
-1.0091968361023265
-0.8953124463057122
-0.9714066157863828
-0.9696798363903262
-0.9645211969042584
-0.9176380432319186
-0.843394256554668
-0.8483616617385492
-0.8558074940252437
-0.8234597505311715
-0.7580625718624072
-0.7426203283762567
-0.7468929605001351
-0.7019607125840944
-0.7536027212743022
-0.7410624356358
-0.701128991297531
-0.7690184883633364
-0.6681748203366535
-0.667790195044441
-0.6677079052470416
-0.6124661430625884
-0.6282733685170491
-0.5720208402081092
-0.5962803157209924
-0.629979733470335
-0.4419942516127038
-0.42038238238480374
-0.47694382258649054
-0.5433788939773154
-0.4310381793179458
-0.36793646507512023
-0.36441977266326137
-0.34028666679170766
-0.3012704392618894
-0.39470624966186185
-0.2584868186021757
-0.3970788437211979
-0.35510853130779607
-0.3068399200200273
-0.3530528836991503
-0.31125524692794787
-0.21139296161514948
-0.3324696938674549
-0.27167261121376957
-0.248055713237928
-0.1592181842717287
-0.08536190997647332
-0.05836707337805977
-0.06792581684998888
-0.07325723176517746
-0.07142384396480368
-0.06058310852607486
0.05033115273414737
-0.06783084465868547
-0.08049889258247125
0.001993573860405721
0.08319952144846941
0.04847745894031568
0.05301422435464153
0.028454804081333718
0.08263855651532533
0.04146213740897564
0.0879478276062962
0.1671068247630827
0.10714794469105089
0.1079221231178071
0.09065331934288286
0.19866591649992224
0.2552574489517591
0.25079257278480876
0.2241657827815719
0.251503002651724
0.2835867746224482
0.27006158468283453
0.2748722041362734
0.3675081046631756
0.41559832690368903
0.43172210736195643
0.2889103960191889
0.3256288484627201
0.32581045303738937
0.46597556354672653
0.4843112611096681
0.4001448941475239
0.459766803673226
0.44632525673867635
0.5240292242205163
0.5244267813277772
0.4324087959081042
0.5390608096256203
0.5956299917524889
0.5268176003839599
0.48335646551601397
0.5696644922859093
0.5475227382657779
0.5314009427252093
0.5881244758619748
0.5895336467331255
0.5276121860029876
0.7098108757105345
0.674901502244163
0.6664187581784241
0.6895016836297605
0.6362008173732447
0.6627243392510318
0.7326054989060886
0.7480534157653904
0.714674003570079
0.695934850424471
0.6414745822302487
0.672369257072972
0.7936638135751498
0.7362452287065584
0.6319750234021192
0.7564585921060759
0.8964114507792762
0.7758167612177025
0.8006937292719813
0.8381520570367246
0.7731796184423156
0.8533185677280195
0.8123910461688212
0.9354532256913328
0.8407849679155024
0.939562654658688
0.9020686974960469
0.8682632677916764
0.8824308173763318
0.8491926604388538
0.8671772431632153
0.99440088386871
0.8344326644855403
0.9394953186193246
0.8493729145174804
0.9453148521886199
0.9616929167974133
1.0670778993049053
0.8208200276220894
0.9378269425226574
0.9957999213845691
0.9684771243871461
0.9859233584601865
0.9176788861308813
1.0440706839284788
1.074260700535586
0.9398838994510268
1.004845701457171
1.003142917326366
1.0747376149865033
1.044488749095735
0.9967479490358282
1.041083378612644
0.9469816686651272
0.9767451735079313
1.095702780138554
1.0110743573111851
1.0494730277280806
1.0042180234889448
1.1401218131406654
1.1094941622387822
0.9916517330125041
1.0183788533942115
1.0621570982626571
1.044014856996394
1.1396689881538584
1.0953041452618115
0.9970526837590915
1.155029059240419
1.0238857546349047
1.0571722221993582
1.1071520758296256
1.1468292866670886
1.0435089266914015
0.9681975823441173
1.0612554111990187
1.0733498048576782
1.0744731830172152
1.0549144007357445
1.1240504840617038
1.1215393862235001
1.1732421604298666
1.1701059228305963
1.1490153687975488
1.1343153900564429
1.0959188326648779
1.1483064990514582
1.21717666223755
1.0555737317468417
0.9956512794717955
1.1973031020151705
1.086930821696536
1.127885209600454
1.0694855792056568
1.1111597078805078
1.2206715329102602
1.0687243657550192
1.1005908405691307
1.0850216728872744
1.077746225976887
1.105697913691502
1.0452196075327511
1.0757042787223792
1.0231193236815517
1.1048054952656206
1.0530006706249195
1.1036899193343688
1.1563828009249564
1.1485849348485764
1.14391691844941
1.0374849901719847
1.1055709130989326
1.102702350963486
1.1741797004421963
1.0383343240584952
1.1041553770476698
1.1391978227423838
1.0879297247964994
1.0871013677988275
1.0645506964417455
1.1338833469053367
1.0346052690612224
1.0226384608116554
1.0451558533480552
1.1396715319728774
1.0634591837082952
1.0800562781625718
1.054229176098465
1.1748827376177213
0.9848186275987413
0.9890711734130452
1.0677407617635246
1.099315768246492
1.0254608865583172
1.0618617576355127
1.0981355094278966
1.118149207566631
1.095478447466742
0.9493240574487207
0.9601635418654108
1.1339415213385158
0.9761527661289783
1.1002450849576153
1.1269858944368862
0.9871382808426028
1.0609339198320225
0.9495238561680406
1.019463704262196
1.131967292657222
1.128244308843344
1.1237456646339539
0.9841271379872238
1.0301503463769464
1.0397465661044722
1.0394042038865483
1.0886174748034736
0.9445333502985673
1.0630452021658807
1.020699785839925
1.1644063828585622
0.9815422923588085
1.0427707258517527
1.0597910987830486
1.0015370166721127
0.9672348160933854
1.0219713098852383
1.0746943077669755
1.0247531561722596
1.026480937472322
1.0450722760429616
1.0757491025979569
1.0580263651741446
1.053559709058777
1.0229614725060374
0.9719988948569369
0.9853357873413487
1.044967191829878
0.8722455260344937
0.9470540333618326
0.95128901936085
1.0149510197962897
0.8769840503380856
0.946002918001625
1.0169037212495458
0.9352724077581326
0.9084696333359307
0.9179920059056128
1.035141938945847
0.9419519044077582
0.9424291607550505
0.8558187212363092
0.9404588020284635
0.9225559091444461
0.9305247099067312
0.8858101354263046
0.8477198553572551
0.8631666945007542
0.7969778359491242
0.9149940089516965
0.9155648743529661
0.8271259592423805
0.9220277932809313
0.8177863850033743
0.761547609187869
0.8721202865808014
0.8290082709166953
0.8093820712035593
0.8706535294806755
0.7877523287179861
0.7664799415459229
0.8532378670307735
0.8056000363956781
0.7061180265705701
0.7958040674041396
0.8102236835156336
0.7168848006088195
0.7324497512767079
0.7121750570859519
0.7679018008463547
0.7156279229796623
0.8225089886161026
0.67877033416388
0.7680994915509674
0.6827771885192357
0.8005569806900756
0.712065474248802
0.6872169241536797
0.7169173303873755
0.7401391762767986
0.6828039112270932
0.6869575315688624
0.5998931909200528
0.5543506446817862
0.7082989917642448
0.6353542809766964
0.6282488475101288
0.6855448869995042
0.6362667684523464
0.5919529301871412
0.6096418999458326
0.7064630291265296
0.5640010649135515
0.5685491544220672
0.5833887326212299
0.4496511909471101
0.4805561465055523
0.5188186460994096
0.5290997572493112
0.5649043272602101
0.5287341190711827
0.5568521788994261
0.5384660519157833
0.48187499166846637
0.4517598252996686
0.4733386728342004
0.4432662982936784
0.37064833733574537
0.40566914502905493
0.483652975833081
0.39068444592301993
0.3883508319348387
0.383299666151068
0.41357203116764907
0.40823988687593976
0.4253597215303461
0.4127734864527757
0.3529846670114645
0.34518882485593855
0.3346704464572315
0.2766122151807822
0.3464945916251991
0.32465217312201206
0.3037068170641725
0.4022974273059243
0.24022237144140465
0.28234497232828487
0.26223936130458186
0.29460871872745414
0.30604972251974283
0.24708247362323846
0.18942938410573137
0.27723806915180627
0.23049055406267482
0.2818457938862966
0.21396990428948423
0.27995377466120447
0.23365299731740222
0.14102975168768464
0.18551691765621153
0.16625189211224867
0.1119002742077258
0.2441239515280438
0.1494105044300959
0.11979956775153881
0.15261377733690396
0.15696541438762684
0.05152004642470635
0.10477228398209629
0.08840831868027207
0.1326663714658379
0.046521528974270566
0.11149615178452535
0.13115744736037865
0.09620277355493975
0.004973429795846598
0.03778890559670148
0.0792338894055373
0.007577084121194219
0.10982130760691339
-0.03246422936414934
-0.007392318518486839
-0.0015463151260326768
-0.04695431286683155
-0.018847419549836333
-0.018961380183209163
-0.05388336186849342
-0.08573727788277215
-0.146962719080205
-0.06159345720000162
-0.05469451516907914
-0.09262577150206436
0.026357888096738627
-0.03587165415841216
-0.06226413223174077
-0.08040125978497395
-0.10990351278777515
-0.12709364118639502
-0.13945550726307424
-0.15726631488793166
-0.12837225768407212
-0.08830857939723022
-0.1963127873216234
-0.2196876112278426
-0.11078870642781594
-0.13319611478948523
-0.18196929095835257
-0.06307682003007502
-0.17343689953881475
-0.16343498424112904
-0.1742477612314977
-0.2267673191478809
-0.17712531108359084
-0.15641554055328077
-0.20098429021616096
-0.15510655395970355
-0.10940124200825219
-0.19737387607228596
-0.03293227395845963
-0.10966675497411493
-0.2709623784668205
-0.02862324005585276
-0.2451099879828904
-0.21144095165440507
-0.24607506175036079
-0.16197757985307662
-0.11887514045089702
-0.11160724012987155
-0.18292949856550417
-0.23521315997216394
-0.20122593678181228
-0.21992546637067126
-0.1937777641336304
-0.2611625105568899
-0.243580075545905
-0.24752899721977342
-0.24472465314363762
-0.22943461473819513
-0.18168812066557055
-0.2152094577732429
-0.14119094114873632
-0.17708353628218812
-0.2077625382071352
-0.2252397169269471
-0.1812929712254129
-0.24670179109296606
-0.1832336834315057
-0.2192880867988493
-0.27000349745649893
-0.14920110437179068
-0.34237290016302246
-0.1696955983544413
-0.257713928085849
-0.17650006311960123
-0.13952405484700323
-0.20190761421421444
-0.22418230034247338
-0.13745273603660024
-0.11803090504533345
-0.15163229820336688
-0.11345107858940955
-0.16477925860047357
-0.06818487906749215
-0.1356930126386958
-0.12563482164104792
-0.09826873729111245
-0.17872020093417157
-0.24532940454096946
-0.10528242456305668
-0.11891758420905227
-0.19479618770811102
-0.16806420643711822
-0.15692837337448304
-0.14890652574708416
-0.11456685183543787
-0.2501085765377665
-0.18079302240965298
-0.177440985245772
-0.15848757564848218
-0.13667422057512235
-0.1575663712136747
-0.17164184928225598
-0.12246716569785343
-0.25087148153316663
-0.17278265661474196
-0.004585431233837034
-0.0879022300842505
-0.10011101265393775
-0.14375065192780903
-0.05071908856271752
-0.15781004026652815
-0.15327406785547273
-0.11877846017614252
-0.030535304739451333
-0.1510604347215522
-0.011389785814882605
-0.10866542000620738
-0.06952033405484345
-0.1371987043970285
-0.1768572379179813
-0.10051451753522443
-0.0772118318804587
-0.09009163344055628
-0.027572691515100632
-0.1044664595506638
-0.04464741452147236
-0.005596025168640287
-0.05225789765614546
-0.052347678004219245
-0.03741883976237313
-0.06169275805159609
-0.08974291747306953
-0.05528207040083396
0.009154332763675013
-0.09089999609637907
